wavelength,amplitude
951.9,0.038
950.95,0.038
950.0,0.038
949.05,0.038
948.1,0.038
947.15,0.038
946.2,0.038
945.25,0.038
944.3,0.038
943.35,0.038
942.4,0.038
941.45,0.038
940.5,0.038
939.55,0.038
938.6,0.038
937.65,0.038
936.7,0.038
935.75,0.038
934.8,0.038
933.85,0.038
932.9,0.038
931.95,0.038
931.0,0.038
930.05,0.038
929.1,0.038
928.15,0.038
927.2,0.038
926.25,0.038
925.3,0.038
924.35,0.038
923.4,0.038
922.45,0.038
921.5,0.038
920.55,0.038
919.6,0.038
918.65,0.038
917.7,0.038
916.75,0.038
915.8,0.038
914.85,0.038
913.9,0.038
912.95,0.038
912.0,0.038
911.05,0.038
910.1,0.038
909.15,0.038
908.2,0.038
907.25,0.038
906.3,0.038
905.35,0.038
904.4,0.038
903.45,0.038
902.5,0.038
901.55,0.038
900.6,0.038
899.65,0.038
898.7,0.038
897.75,0.038
896.8,0.038
895.85,0.038
894.9,0.038
893.95,0.038
893.0,0.038
892.05,0.038
891.1,0.038
890.15,0.038
889.2,0.038
888.25,0.038
887.3,0.038
886.35,0.038
885.4,0.038
884.45,0.038
883.5,0.038
882.55,0.038
881.6,0.038
880.65,0.038
879.7,0.038
878.75,0.038
877.8,0.038
876.85,0.038
875.9,0.038
874.95,0.038
874.0,0.038
873.05,0.038
872.1,0.038
871.15,0.038
870.2,0.038
869.25,0.038
868.3,0.038
867.35,0.038
866.4,0.038
865.45,0.038
864.5,0.038
863.55,0.038
862.6,0.038
861.65,0.038
860.7,0.038
859.75,0.038
858.8,0.038
857.85,0.038
856.9,0.038
855.95,0.038
855.0,0.038
854.05,0.038
853.1,0.038
852.15,0.038
851.2,0.038
850.25,0.038
849.3,0.038
848.35,0.038
847.4,0.038
846.45,0.038
845.5,0.038
844.55,0.038
843.6,0.038
842.65,0.038
841.7,0.038
840.75,0.038
839.8,0.038
838.85,0.038
837.9,0.038
836.95,0.038
836.0,0.038
835.05,0.038
834.1,0.038
833.15,0.038
832.2,0.038
831.25,0.038
830.3,0.038
829.35,0.038
828.4,0.038
827.45,0.038
826.5,0.038
825.55,0.038
824.6,0.038
823.65,0.038
822.7,0.038
821.75,0.038
820.8,0.038
819.85,0.038
818.9,0.038
817.95,0.038
817.0,0.038
816.05,0.038
815.1,0.038
814.15,0.038
813.2,0.038
812.25,0.038
811.3,0.038
810.35,0.038
809.4,0.038
808.45,0.038
807.5,0.038
806.55,0.038
805.6,0.037
804.65,0.037
803.7,0.037
802.75,0.037
801.8,0.037
800.85,0.037
799.9,0.037
798.95,0.036
798.0,0.036
797.05,0.036
796.1,0.036
795.15,0.036
794.2,0.036
793.25,0.036
792.3,0.036
791.35,0.035
790.4,0.035
789.45,0.035
788.5,0.035
787.55,0.035
786.6,0.035
785.65,0.035
784.7,0.035
783.75,0.034
782.8,0.034
781.85,0.034
780.9,0.034
779.95,0.034
779.0,0.034
778.05,0.034
777.1,0.034
776.15,0.033
775.2,0.033
774.25,0.033
773.3,0.033
772.35,0.033
771.4,0.033
770.45,0.033
769.5,0.033
768.55,0.033
767.6,0.032
766.65,0.032
765.7,0.032
764.75,0.032
763.8,0.032
762.85,0.032
761.9,0.032
760.95,0.032
760.0,0.032
759.05,0.031
758.1,0.031
757.15,0.031
756.2,0.031
755.25,0.031
754.3,0.031
753.35,0.031
752.4,0.031
751.45,0.031
750.5,0.031
749.55,0.030
748.6,0.030
747.65,0.030
746.7,0.030
745.75,0.030
744.8,0.030
743.85,0.030
742.9,0.030
741.95,0.030
741.0,0.030
740.05,0.030
739.1,0.029
738.15,0.029
737.2,0.029
736.25,0.029
735.3,0.029
734.35,0.029
733.4,0.029
732.45,0.029
731.5,0.029
730.55,0.029
729.6,0.029
728.65,0.028
727.7,0.028
726.75,0.028
725.8,0.028
724.85,0.028
723.9,0.028
722.95,0.028
722.0,0.028
721.05,0.028
720.1,0.028
719.15,0.028
718.2,0.028
717.25,0.028
716.3,0.027
715.35,0.027
714.4,0.027
713.45,0.027
712.5,0.027
711.55,0.027
710.6,0.027
709.65,0.027
708.7,0.027
707.75,0.027
706.8,0.027
705.85,0.027
704.9,0.027
703.95,0.026
703.0,0.026
702.05,0.026
701.1,0.026
700.15,0.026
699.2,0.026
698.25,0.026
697.3,0.026
696.35,0.026
695.4,0.026
694.45,0.026
693.5,0.026
692.55,0.026
691.6,0.025
690.65,0.025
689.7,0.021
688.75,0.021
687.8,0.021
686.85,0.021
685.9,0.022
684.95,0.022
684.0,0.022
683.05,0.022
682.1,0.021
681.15,0.021
680.2,0.023
679.25,0.023
678.3,0.022
677.35,0.022
676.4,0.028
675.45,0.029
674.5,0.037
673.55,0.038
672.6,0.045
671.65,0.050
670.7,0.061
669.75,0.066
668.8,0.076
667.85,0.083
666.9,0.096
665.95,0.106
665.0,0.125
664.05,0.132
663.1,0.151
662.15,0.162
661.2,0.181
660.25,0.193
659.3,0.214
658.35,0.225
657.4,0.243
656.45,0.260
655.5,0.276
654.55,0.292
653.6,0.308
652.65,0.327
651.7,0.343
650.75,0.357
649.8,0.374
648.85,0.391
647.9,0.408
646.95,0.424
646.0,0.442
645.05,0.458
644.1,0.474
643.15,0.488
642.2,0.509
641.25,0.527
640.3,0.548
639.35,0.566
638.4,0.589
637.45,0.608
636.5,0.633
635.55,0.654
634.6,0.676
633.65,0.699
632.7,0.720
631.75,0.737
630.8,0.758
629.85,0.776
628.9,0.795
627.95,0.809
627.0,0.827
626.05,0.842
625.1,0.859
624.15,0.877
623.2,0.894
622.25,0.907
621.3,0.925
620.35,0.937
619.4,0.954
618.45,0.964
617.5,0.975
616.55,0.984
615.6,0.992
614.65,0.996
613.7,0.999
612.75,1.000
611.8,1.000
610.85,0.999
609.9,0.999
608.95,0.999
608.0,0.996
607.05,0.994
606.1,0.990
605.15,0.984
604.2,0.973
603.25,0.958
602.3,0.939
601.35,0.915
600.4,0.889
599.45,0.856
598.5,0.829
597.55,0.799
596.6,0.779
595.65,0.760
594.7,0.754
593.75,0.751
592.8,0.752
591.85,0.756
590.9,0.754
589.95,0.751
589.0,0.749
588.05,0.748
587.1,0.746
586.15,0.743
585.2,0.740
584.25,0.745
583.3,0.750
582.35,0.757
581.4,0.761
580.45,0.770
579.5,0.775
578.55,0.781
577.6,0.784
576.65,0.791
575.7,0.793
574.75,0.796
573.8,0.801
572.85,0.805
571.9,0.810
570.95,0.813
570.0,0.801
569.05,0.791
568.1,0.782
567.15,0.773
566.2,0.764
565.25,0.755
564.3,0.745
563.35,0.737
562.4,0.728
561.45,0.719
560.5,0.710
559.55,0.701
558.6,0.692
557.65,0.681
556.7,0.674
555.75,0.672
554.8,0.669
553.85,0.666
552.9,0.663
551.95,0.659
551.0,0.655
550.05,0.652
549.1,0.649
548.15,0.645
547.2,0.642
546.25,0.640
545.3,0.638
544.35,0.634
543.4,0.630
542.45,0.625
541.5,0.622
540.55,0.616
539.6,0.612
538.65,0.608
537.7,0.604
536.75,0.600
535.8,0.596
534.85,0.593
533.9,0.589
532.95,0.584
532.0,0.579
531.05,0.577
530.1,0.574
529.15,0.571
528.2,0.563
527.25,0.559
526.3,0.550
525.35,0.545
524.4,0.535
523.45,0.528
522.5,0.516
521.55,0.511
520.6,0.500
519.65,0.495
518.7,0.486
517.75,0.483
516.8,0.475
515.85,0.472
514.9,0.465
513.95,0.462
513.0,0.453
512.05,0.451
511.1,0.443
510.15,0.437
509.2,0.427
508.25,0.423
507.3,0.414
506.35,0.410
505.4,0.402
504.45,0.400
503.5,0.394
502.55,0.391
501.6,0.387
500.65,0.383
499.7,0.379
498.75,0.374
497.8,0.369
496.85,0.362
495.9,0.353
494.95,0.345
494.0,0.334
493.05,0.324
492.1,0.312
491.15,0.303
490.2,0.288
489.25,0.277
488.3,0.265
487.35,0.254
486.4,0.244
485.45,0.235
484.5,0.228
483.55,0.223
482.6,0.220
481.65,0.220
480.7,0.224
479.75,0.227
478.8,0.232
477.85,0.235
476.9,0.240
475.95,0.243
475.0,0.248
474.05,0.250
473.1,0.252
472.15,0.251
471.2,0.245
470.25,0.241
469.3,0.233
468.35,0.226
467.4,0.213
466.45,0.204
465.5,0.191
464.55,0.179
463.6,0.163
462.65,0.152
461.7,0.138
460.75,0.127
459.8,0.115
458.85,0.105
457.9,0.093
456.95,0.085
456.0,0.075
455.05,0.068
454.1,0.060
453.15,0.053
452.2,0.048
451.25,0.041
450.3,0.038
449.35,0.033
448.4,0.029
447.45,0.024
446.5,0.022
445.55,0.019
444.6,0.018
443.65,0.016
442.7,0.016
441.75,0.015
440.8,0.015
439.85,0.015
438.9,0.015
437.95,0.015
437.0,0.015
436.05,0.015
435.1,0.015
434.15,0.015
433.2,0.015
432.25,0.015
431.3,0.015
430.35,0.015
429.4,0.015
428.45,0.015
427.5,0.015
426.55,0.015
425.6,0.015
424.65,0.015
423.7,0.015
422.75,0.015
421.8,0.015
420.85,0.015
419.9,0.015
418.95,0.015
418.0,0.014
417.05,0.014
416.1,0.014
415.15,0.014
414.2,0.014
413.25,0.014
412.3,0.014
411.35,0.014
410.4,0.014
409.45,0.014
408.5,0.014
407.55,0.014
406.6,0.014
405.65,0.014
404.7,0.014
403.75,0.014
402.8,0.014
401.85,0.014
400.9,0.014
399.95,0.014
399.0,0.014
398.05,0.014
397.1,0.014
396.15,0.014
395.2,0.014
394.25,0.014
393.3,0.014
392.35,0.014
391.4,0.014
390.45,0.014
389.5,0.014
388.55,0.014
387.6,0.014
386.65,0.014
385.7,0.014
384.75,0.014
383.8,0.014
382.85,0.014
381.9,0.014
380.95,0.014
380.0,0.014
