wavelength,amplitude
999.6,0.043
998.62,0.043
997.64,0.043
996.66,0.043
995.68,0.043
994.7,0.043
993.72,0.043
992.74,0.043
991.76,0.043
990.78,0.043
989.8,0.043
988.82,0.043
987.84,0.043
986.86,0.043
985.88,0.043
984.9,0.043
983.92,0.043
982.94,0.043
981.96,0.043
980.98,0.043
980.0,0.043
979.02,0.043
978.04,0.043
977.06,0.043
976.08,0.043
975.1,0.043
974.12,0.043
973.14,0.043
972.16,0.043
971.18,0.043
970.2,0.043
969.22,0.043
968.24,0.043
967.26,0.043
966.28,0.043
965.3,0.043
964.32,0.043
963.34,0.043
962.36,0.043
961.38,0.043
960.4,0.043
959.42,0.043
958.44,0.043
957.46,0.043
956.48,0.043
955.5,0.043
954.52,0.043
953.54,0.043
952.56,0.043
951.58,0.043
950.6,0.043
949.62,0.043
948.64,0.043
947.66,0.043
946.68,0.043
945.7,0.043
944.72,0.043
943.74,0.043
942.76,0.043
941.78,0.043
940.8,0.042
939.82,0.042
938.84,0.042
937.86,0.042
936.88,0.042
935.9,0.042
934.92,0.042
933.94,0.042
932.96,0.043
931.98,0.043
931.0,0.043
930.02,0.043
929.04,0.043
928.06,0.043
927.08,0.043
926.1,0.043
925.12,0.041
924.14,0.041
923.16,0.041
922.18,0.041
921.2,0.041
920.22,0.041
919.24,0.041
918.26,0.041
917.28,0.043
916.3,0.043
915.32,0.043
914.34,0.043
913.36,0.043
912.38,0.043
911.4,0.043
910.42,0.043
909.44,0.041
908.46,0.041
907.48,0.041
906.5,0.041
905.52,0.040
904.54,0.040
903.56,0.040
902.58,0.040
901.6,0.042
900.62,0.042
899.64,0.042
898.66,0.042
897.68,0.043
896.7,0.043
895.72,0.043
894.74,0.043
893.76,0.040
892.78,0.040
891.8,0.040
890.82,0.040
889.84,0.041
888.86,0.041
887.88,0.040
886.9,0.040
885.92,0.043
884.94,0.043
883.96,0.043
882.98,0.043
882.0,0.042
881.02,0.042
880.04,0.042
879.06,0.042
878.08,0.042
877.1,0.042
876.12,0.042
875.14,0.042
874.16,0.041
873.18,0.041
872.2,0.041
871.22,0.041
870.24,0.043
869.26,0.043
868.28,0.043
867.3,0.043
866.32,0.042
865.34,0.042
864.36,0.042
863.38,0.042
862.4,0.043
861.42,0.043
860.44,0.043
859.46,0.043
858.48,0.041
857.5,0.041
856.52,0.043
855.54,0.043
854.56,0.043
853.58,0.043
852.6,0.043
851.62,0.043
850.64,0.043
849.66,0.043
848.68,0.043
847.7,0.043
846.72,0.043
845.74,0.043
844.76,0.043
843.78,0.043
842.8,0.043
841.82,0.043
840.84,0.043
839.86,0.043
838.88,0.043
837.9,0.043
836.92,0.043
835.94,0.043
834.96,0.043
833.98,0.043
833.0,0.043
832.02,0.043
831.04,0.043
830.06,0.043
829.08,0.043
828.1,0.043
827.12,0.043
826.14,0.043
825.16,0.043
824.18,0.043
823.2,0.043
822.22,0.043
821.24,0.043
820.26,0.043
819.28,0.043
818.3,0.043
817.32,0.043
816.34,0.043
815.36,0.043
814.38,0.043
813.4,0.043
812.42,0.043
811.44,0.043
810.46,0.043
809.48,0.043
808.5,0.043
807.52,0.043
806.54,0.043
805.56,0.042
804.58,0.042
803.6,0.042
802.62,0.042
801.64,0.042
800.66,0.042
799.68,0.041
798.7,0.041
797.72,0.041
796.74,0.041
795.76,0.041
794.78,0.041
793.8,0.040
792.82,0.040
791.84,0.040
790.86,0.040
789.88,0.040
788.9,0.040
787.92,0.040
786.94,0.039
785.96,0.039
784.98,0.039
784.0,0.039
783.02,0.039
782.04,0.039
781.06,0.039
780.08,0.038
779.1,0.038
778.12,0.038
777.14,0.037
776.16,0.037
775.18,0.037
774.2,0.038
773.22,0.037
772.24,0.037
771.26,0.037
770.28,0.036
769.3,0.036
768.32,0.036
767.34,0.036
766.36,0.032
765.38,0.032
764.4,0.031
763.42,0.031
762.44,0.029
761.46,0.029
760.48,0.029
759.5,0.029
758.52,0.026
757.54,0.026
756.56,0.025
755.58,0.025
754.6,0.018
753.62,0.018
752.64,0.018
751.66,0.018
750.68,0.018
749.7,0.018
748.72,0.018
747.74,0.018
746.76,0.017
745.78,0.017
744.8,0.019
743.82,0.019
742.84,0.020
741.86,0.020
740.88,0.019
739.9,0.019
738.92,0.019
737.94,0.018
736.96,0.019
735.98,0.019
735.0,0.022
734.02,0.028
733.04,0.028
732.06,0.029
731.08,0.032
730.1,0.034
729.12,0.034
728.14,0.041
727.16,0.044
726.18,0.050
725.2,0.052
724.22,0.062
723.24,0.071
722.26,0.081
721.28,0.089
720.3,0.110
719.32,0.123
718.34,0.141
717.36,0.162
716.38,0.195
715.4,0.212
714.42,0.237
713.44,0.263
712.46,0.294
711.48,0.323
710.5,0.351
709.52,0.379
708.54,0.413
707.56,0.459
706.58,0.510
705.6,0.592
704.62,0.691
703.64,0.802
702.66,0.917
701.68,0.975
700.7,0.983
699.72,0.976
698.74,0.964
697.76,0.971
696.78,1.000
695.8,0.997
694.82,0.970
693.84,0.928
692.86,0.876
691.88,0.833
690.9,0.785
689.92,0.712
688.94,0.607
687.96,0.515
686.98,0.439
686.0,0.369
685.02,0.317
684.04,0.273
683.06,0.226
682.08,0.185
681.1,0.147
680.12,0.124
679.14,0.097
678.16,0.078
677.18,0.061
676.2,0.053
675.22,0.042
674.24,0.039
673.26,0.033
672.28,0.032
671.3,0.028
670.32,0.028
669.34,0.025
668.36,0.023
667.38,0.022
666.4,0.018
665.42,0.017
664.44,0.017
663.46,0.017
662.48,0.015
661.5,0.015
660.52,0.014
659.54,0.014
658.56,0.013
657.58,0.013
656.6,0.013
655.62,0.013
654.64,0.014
653.66,0.014
652.68,0.013
651.7,0.013
650.72,0.013
649.74,0.013
648.76,0.013
647.78,0.013
646.8,0.013
645.82,0.013
644.84,0.013
643.86,0.013
642.88,0.013
641.9,0.013
640.92,0.013
639.94,0.013
638.96,0.013
637.98,0.013
637.0,0.013
636.02,0.013
635.04,0.012
634.06,0.012
633.08,0.012
632.1,0.012
631.12,0.012
630.14,0.012
629.16,0.012
628.18,0.012
627.2,0.012
626.22,0.012
625.24,0.012
624.26,0.012
623.28,0.012
622.3,0.012
621.32,0.013
620.34,0.013
619.36,0.013
618.38,0.013
617.4,0.013
616.42,0.012
615.44,0.012
614.46,0.012
613.48,0.012
612.5,0.012
611.52,0.013
610.54,0.013
609.56,0.013
608.58,0.013
607.6,0.014
606.62,0.014
605.64,0.014
604.66,0.014
603.68,0.013
602.7,0.013
601.72,0.014
600.74,0.014
599.76,0.015
598.78,0.015
597.8,0.014
596.82,0.014
595.84,0.014
594.86,0.014
593.88,0.014
592.9,0.014
591.92,0.014
590.94,0.014
589.96,0.014
588.98,0.014
588.0,0.015
587.02,0.015
586.04,0.015
585.06,0.015
584.08,0.015
583.1,0.016
582.12,0.016
581.14,0.016
580.16,0.017
579.18,0.018
578.2,0.017
577.22,0.018
576.24,0.018
575.26,0.018
574.28,0.018
573.3,0.018
572.32,0.018
571.34,0.018
570.36,0.018
569.38,0.018
568.4,0.018
567.42,0.018
566.44,0.018
565.46,0.018
564.48,0.018
563.5,0.018
562.52,0.018
561.54,0.017
560.56,0.017
559.58,0.017
558.6,0.018
557.62,0.017
556.64,0.017
555.66,0.016
554.68,0.016
553.7,0.016
552.72,0.019
551.74,0.019
550.76,0.019
549.78,0.019
548.8,0.018
547.82,0.018
546.84,0.018
545.86,0.018
544.88,0.019
543.9,0.019
542.92,0.019
541.94,0.019
540.96,0.018
539.98,0.018
539.0,0.018
538.02,0.019
537.04,0.018
536.06,0.018
535.08,0.019
534.1,0.019
533.12,0.019
532.14,0.019
531.16,0.018
530.18,0.018
529.2,0.018
528.22,0.018
527.24,0.017
526.26,0.018
525.28,0.018
524.3,0.018
523.32,0.019
522.34,0.019
521.36,0.019
520.38,0.019
519.4,0.018
518.42,0.018
517.44,0.018
516.46,0.018
515.48,0.017
514.5,0.017
513.52,0.017
512.54,0.017
511.56,0.013
510.58,0.013
509.6,0.012
508.62,0.012
507.64,0.012
506.66,0.012
505.68,0.012
504.7,0.012
503.72,0.011
502.74,0.011
501.76,0.011
500.78,0.011
499.8,0.010
498.82,0.010
497.84,0.010
496.86,0.010
495.88,0.010
494.9,0.010
493.92,0.010
492.94,0.010
491.96,0.010
490.98,0.010
490.0,0.010
489.02,0.010
488.04,0.011
487.06,0.011
486.08,0.011
485.1,0.011
484.12,0.010
483.14,0.010
482.16,0.010
481.18,0.010
480.2,0.009
479.22,0.009
478.24,0.009
477.26,0.009
476.28,0.009
475.3,0.009
474.32,0.009
473.34,0.009
472.36,0.009
471.38,0.009
470.4,0.009
469.42,0.009
468.44,0.009
467.46,0.009
466.48,0.009
465.5,0.009
464.52,0.009
463.54,0.009
462.56,0.009
461.58,0.009
460.6,0.009
459.62,0.009
458.64,0.009
457.66,0.009
456.68,0.009
455.7,0.009
454.72,0.009
453.74,0.009
452.76,0.009
451.78,0.009
450.8,0.009
449.82,0.009
448.84,0.009
447.86,0.009
446.88,0.009
445.9,0.009
444.92,0.009
443.94,0.009
442.96,0.009
441.98,0.009
441.0,0.009
440.02,0.008
439.04,0.008
438.06,0.008
437.08,0.008
436.1,0.008
435.12,0.008
434.14,0.008
433.16,0.008
432.18,0.008
431.2,0.009
430.22,0.008
429.24,0.008
428.26,0.008
427.28,0.008
426.3,0.008
425.32,0.008
424.34,0.008
423.36,0.008
422.38,0.008
421.4,0.008
420.42,0.008
419.44,0.008
418.46,0.008
417.48,0.008
416.5,0.008
415.52,0.008
414.54,0.008
413.56,0.008
412.58,0.008
411.6,0.008
410.62,0.008
409.64,0.008
408.66,0.008
407.68,0.008
406.7,0.008
405.72,0.008
404.74,0.008
403.76,0.008
402.78,0.008
401.8,0.008
400.82,0.008
399.84,0.008
398.86,0.008
397.88,0.008
396.9,0.008
395.92,0.008
394.94,0.008
393.96,0.008
392.98,0.008
392.0,0.008
391.02,0.008
390.04,0.008
389.06,0.008
388.08,0.008
387.1,0.008
386.12,0.008
385.14,0.008
384.16,0.008
383.18,0.008
382.2,0.008
381.22,0.008
380.24,0.008
