wavelength,amplitude
999.18,0.049
998.27,0.049
997.36,0.049
996.45,0.049
995.54,0.049
994.63,0.049
993.72,0.049
992.81,0.049
991.9,0.049
990.99,0.049
990.08,0.049
989.17,0.049
988.26,0.049
987.35,0.049
986.44,0.049
985.53,0.049
984.62,0.049
983.71,0.049
982.8,0.049
981.89,0.049
980.98,0.049
980.07,0.049
979.16,0.049
978.25,0.049
977.34,0.049
976.43,0.049
975.52,0.049
974.61,0.049
973.7,0.049
972.79,0.049
971.88,0.049
970.97,0.049
970.06,0.049
969.15,0.049
968.24,0.049
967.33,0.049
966.42,0.049
965.51,0.049
964.6,0.049
963.69,0.049
962.78,0.049
961.87,0.049
960.96,0.049
960.05,0.049
959.14,0.049
958.23,0.049
957.32,0.049
956.41,0.049
955.5,0.049
954.59,0.049
953.68,0.049
952.77,0.049
951.86,0.049
950.95,0.049
950.04,0.049
949.13,0.049
948.22,0.049
947.31,0.049
946.4,0.049
945.49,0.049
944.58,0.049
943.67,0.049
942.76,0.049
941.85,0.049
940.94,0.049
940.03,0.049
939.12,0.049
938.21,0.049
937.3,0.049
936.39,0.049
935.48,0.049
934.57,0.049
933.66,0.049
932.75,0.049
931.84,0.049
930.93,0.049
930.02,0.049
929.11,0.049
928.2,0.049
927.29,0.049
926.38,0.049
925.47,0.049
924.56,0.049
923.65,0.049
922.74,0.049
921.83,0.049
920.92,0.049
920.01,0.049
919.1,0.049
918.19,0.049
917.28,0.049
916.37,0.049
915.46,0.049
914.55,0.049
913.64,0.049
912.73,0.049
911.82,0.049
910.91,0.049
910.0,0.049
909.09,0.049
908.18,0.049
907.27,0.049
906.36,0.049
905.45,0.049
904.54,0.049
903.63,0.049
902.72,0.049
901.81,0.049
900.9,0.049
899.99,0.049
899.08,0.049
898.17,0.049
897.26,0.049
896.35,0.049
895.44,0.049
894.53,0.049
893.62,0.049
892.71,0.049
891.8,0.049
890.89,0.049
889.98,0.049
889.07,0.049
888.16,0.049
887.25,0.049
886.34,0.049
885.43,0.049
884.52,0.049
883.61,0.049
882.7,0.049
881.79,0.049
880.88,0.049
879.97,0.049
879.06,0.049
878.15,0.049
877.24,0.049
876.33,0.049
875.42,0.049
874.51,0.049
873.6,0.048
872.69,0.048
871.78,0.048
870.87,0.048
869.96,0.048
869.05,0.048
868.14,0.048
867.23,0.048
866.32,0.049
865.41,0.049
864.5,0.049
863.59,0.049
862.68,0.049
861.77,0.049
860.86,0.049
859.95,0.049
859.04,0.047
858.13,0.047
857.22,0.047
856.31,0.046
855.4,0.047
854.49,0.047
853.58,0.047
852.67,0.047
851.76,0.049
850.85,0.049
849.94,0.049
849.03,0.049
848.12,0.049
847.21,0.049
846.3,0.049
845.39,0.049
844.48,0.047
843.57,0.047
842.66,0.047
841.75,0.047
840.84,0.046
839.93,0.046
839.02,0.046
838.11,0.046
837.2,0.048
836.29,0.048
835.38,0.048
834.47,0.048
833.56,0.049
832.65,0.049
831.74,0.049
830.83,0.049
829.92,0.046
829.01,0.046
828.1,0.046
827.19,0.046
826.28,0.047
825.37,0.047
824.46,0.046
823.55,0.046
822.64,0.049
821.73,0.049
820.82,0.049
819.91,0.049
819.0,0.048
818.09,0.048
817.18,0.048
816.27,0.048
815.36,0.048
814.45,0.048
813.54,0.048
812.63,0.048
811.72,0.047
810.81,0.047
809.9,0.047
808.99,0.046
808.08,0.049
807.17,0.049
806.26,0.049
805.35,0.048
804.44,0.047
803.53,0.047
802.62,0.047
801.71,0.047
800.8,0.047
799.89,0.047
798.98,0.046
798.07,0.046
797.16,0.045
796.25,0.045
795.34,0.046
794.43,0.046
793.52,0.045
792.61,0.045
791.7,0.046
790.79,0.045
789.88,0.045
788.97,0.045
788.06,0.045
787.15,0.045
786.24,0.045
785.33,0.045
784.42,0.045
783.51,0.044
782.6,0.044
781.69,0.044
780.78,0.044
779.87,0.044
778.96,0.044
778.05,0.043
777.14,0.043
776.23,0.043
775.32,0.043
774.41,0.043
773.5,0.043
772.59,0.043
771.68,0.042
770.77,0.042
769.86,0.042
768.95,0.042
768.04,0.042
767.13,0.042
766.22,0.042
765.31,0.042
764.4,0.041
763.49,0.041
762.58,0.041
761.67,0.041
760.76,0.041
759.85,0.041
758.94,0.041
758.03,0.040
757.12,0.040
756.21,0.040
755.3,0.040
754.39,0.040
753.48,0.040
752.57,0.040
751.66,0.040
750.75,0.040
749.84,0.039
748.93,0.039
748.02,0.039
747.11,0.039
746.2,0.039
745.29,0.039
744.38,0.039
743.47,0.039
742.56,0.038
741.65,0.038
740.74,0.038
739.83,0.038
738.92,0.038
738.01,0.038
737.1,0.038
736.19,0.038
735.28,0.038
734.37,0.037
733.46,0.037
732.55,0.037
731.64,0.037
730.73,0.037
729.82,0.037
728.91,0.037
728.0,0.037
727.09,0.037
726.18,0.037
725.27,0.036
724.36,0.036
723.45,0.036
722.54,0.036
721.63,0.035
720.72,0.035
719.81,0.035
718.9,0.036
717.99,0.036
717.08,0.036
716.17,0.035
715.26,0.035
714.35,0.035
713.44,0.035
712.53,0.035
711.62,0.031
710.71,0.031
709.8,0.030
708.89,0.030
707.98,0.028
707.07,0.028
706.16,0.028
705.25,0.028
704.34,0.025
703.43,0.025
702.52,0.025
701.61,0.024
700.7,0.017
699.79,0.017
698.88,0.017
697.97,0.017
697.06,0.017
696.15,0.017
695.24,0.017
694.33,0.017
693.42,0.017
692.51,0.017
691.6,0.018
690.69,0.018
689.78,0.019
688.87,0.019
687.96,0.018
687.05,0.018
686.14,0.019
685.23,0.018
684.32,0.019
683.41,0.018
682.5,0.022
681.59,0.027
680.68,0.027
679.77,0.028
678.86,0.031
677.95,0.033
677.04,0.034
676.13,0.040
675.22,0.043
674.31,0.049
673.4,0.051
672.49,0.061
671.58,0.070
670.67,0.080
669.76,0.088
668.85,0.108
667.94,0.121
667.03,0.140
666.12,0.160
665.21,0.193
664.3,0.210
663.39,0.234
662.48,0.260
661.57,0.291
660.66,0.320
659.75,0.348
658.84,0.377
657.93,0.410
657.02,0.456
656.11,0.507
655.2,0.590
654.29,0.688
653.38,0.799
652.47,0.914
651.56,0.973
650.65,0.981
649.74,0.974
648.83,0.963
647.92,0.970
647.01,1.000
646.1,0.997
645.19,0.971
644.28,0.929
643.37,0.878
642.46,0.836
641.55,0.787
640.64,0.715
639.73,0.609
638.82,0.517
637.91,0.441
637.0,0.371
636.09,0.319
635.18,0.275
634.27,0.227
633.36,0.186
632.45,0.148
631.54,0.125
630.63,0.098
629.72,0.078
628.81,0.062
627.9,0.053
626.99,0.043
626.08,0.039
625.17,0.033
624.26,0.033
623.35,0.029
622.44,0.029
621.53,0.025
620.62,0.024
619.71,0.023
618.8,0.019
617.89,0.018
616.98,0.018
616.07,0.018
615.16,0.015
614.25,0.015
613.34,0.014
612.43,0.014
611.52,0.013
610.61,0.013
609.7,0.014
608.79,0.014
607.88,0.014
606.97,0.014
606.06,0.014
605.15,0.013
604.24,0.013
603.33,0.013
602.42,0.013
601.51,0.013
600.6,0.013
599.69,0.013
598.78,0.013
597.87,0.013
596.96,0.013
596.05,0.013
595.14,0.013
594.23,0.013
593.32,0.013
592.41,0.013
591.5,0.013
590.59,0.013
589.68,0.013
588.77,0.013
587.86,0.013
586.95,0.013
586.04,0.013
585.13,0.013
584.22,0.013
583.31,0.013
582.4,0.013
581.49,0.013
580.58,0.013
579.67,0.013
578.76,0.013
577.85,0.013
576.94,0.014
576.03,0.014
575.12,0.014
574.21,0.014
573.3,0.014
572.39,0.014
571.48,0.014
570.57,0.014
569.66,0.014
568.75,0.014
567.84,0.015
566.93,0.015
566.02,0.015
565.11,0.015
564.2,0.015
563.29,0.015
562.38,0.015
561.47,0.015
560.56,0.014
559.65,0.014
558.74,0.015
557.83,0.015
556.92,0.015
556.01,0.015
555.1,0.015
554.19,0.015
553.28,0.015
552.37,0.015
551.46,0.015
550.55,0.015
549.64,0.015
548.73,0.015
547.82,0.015
546.91,0.015
546.0,0.016
545.09,0.016
544.18,0.016
543.27,0.016
542.36,0.016
541.45,0.016
540.54,0.016
539.63,0.016
538.72,0.018
537.81,0.017
536.9,0.017
535.99,0.017
535.08,0.017
534.17,0.017
533.26,0.017
532.35,0.017
531.44,0.017
530.53,0.017
529.62,0.017
528.71,0.017
527.8,0.017
526.89,0.017
525.98,0.017
525.07,0.017
524.16,0.018
523.25,0.018
522.34,0.018
521.43,0.018
520.52,0.018
519.61,0.018
518.7,0.018
517.79,0.018
516.88,0.018
515.97,0.017
515.06,0.017
514.15,0.017
513.24,0.020
512.33,0.020
511.42,0.020
510.51,0.020
509.6,0.019
508.69,0.019
507.78,0.019
506.87,0.019
505.96,0.020
505.05,0.020
504.14,0.020
503.23,0.020
502.32,0.019
501.41,0.019
500.5,0.020
499.59,0.020
498.68,0.019
497.77,0.019
496.86,0.020
495.95,0.020
495.04,0.020
494.13,0.020
493.22,0.019
492.31,0.019
491.4,0.019
490.49,0.019
489.58,0.018
488.67,0.019
487.76,0.019
486.85,0.019
485.94,0.020
485.03,0.020
484.12,0.020
483.21,0.020
482.3,0.020
481.39,0.019
480.48,0.019
479.57,0.019
478.66,0.019
477.75,0.019
476.84,0.019
475.93,0.018
475.02,0.014
474.11,0.014
473.2,0.013
472.29,0.013
471.38,0.013
470.47,0.013
469.56,0.013
468.65,0.013
467.74,0.012
466.83,0.012
465.92,0.012
465.01,0.012
464.1,0.011
463.19,0.011
462.28,0.011
461.37,0.011
460.46,0.011
459.55,0.011
458.64,0.011
457.73,0.011
456.82,0.011
455.91,0.011
455.0,0.010
454.09,0.010
453.18,0.011
452.27,0.011
451.36,0.011
450.45,0.011
449.54,0.010
448.63,0.010
447.72,0.011
446.81,0.011
445.9,0.010
444.99,0.010
444.08,0.010
443.17,0.010
442.26,0.010
441.35,0.010
440.44,0.010
439.53,0.010
438.62,0.010
437.71,0.010
436.8,0.010
435.89,0.010
434.98,0.010
434.07,0.010
433.16,0.010
432.25,0.010
431.34,0.010
430.43,0.010
429.52,0.010
428.61,0.010
427.7,0.009
426.79,0.009
425.88,0.009
424.97,0.009
424.06,0.009
423.15,0.009
422.24,0.009
421.33,0.009
420.42,0.009
419.51,0.009
418.6,0.009
417.69,0.009
416.78,0.009
415.87,0.009
414.96,0.009
414.05,0.009
413.14,0.009
412.23,0.009
411.32,0.009
410.41,0.009
409.5,0.009
408.59,0.009
407.68,0.009
406.77,0.009
405.86,0.009
404.95,0.009
404.04,0.009
403.13,0.009
402.22,0.009
401.31,0.009
400.4,0.009
399.49,0.009
398.58,0.009
397.67,0.009
396.76,0.009
395.85,0.009
394.94,0.009
394.03,0.009
393.12,0.009
392.21,0.009
391.3,0.009
390.39,0.009
389.48,0.009
388.57,0.009
387.66,0.009
386.75,0.009
385.84,0.009
384.93,0.009
384.02,0.009
383.11,0.009
382.2,0.009
381.29,0.009
380.38,0.009
