wavelength,amplitude
999.22,0.049
998.28,0.050
997.34,0.050
996.4,0.051
995.46,0.051
994.52,0.050
993.58,0.050
992.64,0.051
991.7,0.051
990.76,0.051
989.82,0.052
988.88,0.051
987.94,0.052
987.0,0.052
986.06,0.053
985.12,0.053
984.18,0.053
983.24,0.053
982.3,0.053
981.36,0.052
980.42,0.052
979.48,0.052
978.54,0.053
977.6,0.052
976.66,0.053
975.72,0.053
974.78,0.054
973.84,0.054
972.9,0.055
971.96,0.055
971.02,0.055
970.08,0.056
969.14,0.056
968.2,0.056
967.26,0.056
966.32,0.055
965.38,0.055
964.44,0.055
963.5,0.055
962.56,0.055
961.62,0.055
960.68,0.056
959.74,0.055
958.8,0.055
957.86,0.056
956.92,0.056
955.98,0.056
955.04,0.056
954.1,0.056
953.16,0.056
952.22,0.056
951.28,0.056
950.34,0.056
949.4,0.056
948.46,0.056
947.52,0.056
946.58,0.057
945.64,0.057
944.7,0.057
943.76,0.057
942.82,0.056
941.88,0.057
940.94,0.057
940.0,0.056
939.06,0.057
938.12,0.057
937.18,0.057
936.24,0.057
935.3,0.057
934.36,0.057
933.42,0.057
932.48,0.056
931.54,0.057
930.6,0.058
929.66,0.057
928.72,0.057
927.78,0.057
926.84,0.057
925.9,0.057
924.96,0.057
924.02,0.057
923.08,0.057
922.14,0.057
921.2,0.057
920.26,0.057
919.32,0.057
918.38,0.057
917.44,0.057
916.5,0.057
915.56,0.057
914.62,0.057
913.68,0.057
912.74,0.057
911.8,0.058
910.86,0.058
909.92,0.057
908.98,0.057
908.04,0.057
907.1,0.057
906.16,0.057
905.22,0.057
904.28,0.057
903.34,0.057
902.4,0.057
901.46,0.057
900.52,0.057
899.58,0.057
898.64,0.058
897.7,0.058
896.76,0.057
895.82,0.058
894.88,0.057
893.94,0.057
893.0,0.058
892.06,0.058
891.12,0.058
890.18,0.058
889.24,0.058
888.3,0.058
887.36,0.058
886.42,0.058
885.48,0.058
884.54,0.059
883.6,0.058
882.66,0.058
881.72,0.058
880.78,0.058
879.84,0.058
878.9,0.059
877.96,0.058
877.02,0.059
876.08,0.059
875.14,0.058
874.2,0.059
873.26,0.059
872.32,0.059
871.38,0.059
870.44,0.059
869.5,0.060
868.56,0.059
867.62,0.059
866.68,0.059
865.74,0.060
864.8,0.060
863.86,0.060
862.92,0.060
861.98,0.061
861.04,0.061
860.1,0.061
859.16,0.061
858.22,0.062
857.28,0.061
856.34,0.061
855.4,0.061
854.46,0.061
853.52,0.061
852.58,0.062
851.64,0.062
850.7,0.062
849.76,0.063
848.82,0.063
847.88,0.062
846.94,0.062
846.0,0.062
845.06,0.063
844.12,0.063
843.18,0.064
842.24,0.064
841.3,0.064
840.36,0.064
839.42,0.065
838.48,0.065
837.54,0.064
836.6,0.065
835.66,0.065
834.72,0.066
833.78,0.067
832.84,0.067
831.9,0.068
830.96,0.068
830.02,0.069
829.08,0.069
828.14,0.069
827.2,0.069
826.26,0.069
825.32,0.070
824.38,0.071
823.44,0.071
822.5,0.071
821.56,0.071
820.62,0.071
819.68,0.070
818.74,0.070
817.8,0.070
816.86,0.070
815.92,0.070
814.98,0.069
814.04,0.068
813.1,0.068
812.16,0.068
811.22,0.068
810.28,0.068
809.34,0.068
808.4,0.068
807.46,0.068
806.52,0.069
805.58,0.069
804.64,0.069
803.7,0.070
802.76,0.070
801.82,0.071
800.88,0.071
799.94,0.071
799.0,0.071
798.06,0.072
797.12,0.073
796.18,0.075
795.24,0.075
794.3,0.076
793.36,0.076
792.42,0.078
791.48,0.079
790.54,0.080
789.6,0.082
788.66,0.083
787.72,0.084
786.78,0.084
785.84,0.085
784.9,0.085
783.96,0.087
783.02,0.088
782.08,0.088
781.14,0.090
780.2,0.092
779.26,0.094
778.32,0.095
777.38,0.095
776.44,0.095
775.5,0.096
774.56,0.097
773.62,0.098
772.68,0.099
771.74,0.100
770.8,0.101
769.86,0.101
768.92,0.101
767.98,0.102
767.04,0.103
766.1,0.105
765.16,0.105
764.22,0.106
763.28,0.108
762.34,0.111
761.4,0.112
760.46,0.115
759.52,0.116
758.58,0.120
757.64,0.126
756.7,0.132
755.76,0.141
754.82,0.147
753.88,0.154
752.94,0.166
752.0,0.174
751.06,0.183
750.12,0.193
749.18,0.199
748.24,0.204
747.3,0.207
746.36,0.208
745.42,0.209
744.48,0.207
743.54,0.202
742.6,0.194
741.66,0.187
740.72,0.179
739.78,0.171
738.84,0.164
737.9,0.154
736.96,0.148
736.02,0.141
735.08,0.132
734.14,0.127
733.2,0.123
732.26,0.120
731.32,0.118
730.38,0.117
729.44,0.116
728.5,0.114
727.56,0.112
726.62,0.111
725.68,0.110
724.74,0.108
723.8,0.106
722.86,0.105
721.92,0.101
720.98,0.099
720.04,0.095
719.1,0.094
718.16,0.091
717.22,0.087
716.28,0.085
715.34,0.083
714.4,0.082
713.46,0.080
712.52,0.078
711.58,0.075
710.64,0.073
709.7,0.071
708.76,0.071
707.82,0.070
706.88,0.070
705.94,0.070
705.0,0.069
704.06,0.071
703.12,0.070
702.18,0.071
701.24,0.070
700.3,0.070
699.36,0.069
698.42,0.070
697.48,0.070
696.54,0.068
695.6,0.069
694.66,0.070
693.72,0.072
692.78,0.073
691.84,0.076
690.9,0.079
689.96,0.083
689.02,0.087
688.08,0.088
687.14,0.094
686.2,0.099
685.26,0.103
684.32,0.108
683.38,0.112
682.44,0.116
681.5,0.122
680.56,0.129
679.62,0.129
678.68,0.127
677.74,0.125
676.8,0.120
675.86,0.115
674.92,0.112
673.98,0.105
673.04,0.099
672.1,0.092
671.16,0.089
670.22,0.088
669.28,0.088
668.34,0.093
667.4,0.102
666.46,0.114
665.52,0.125
664.58,0.141
663.64,0.154
662.7,0.170
661.76,0.189
660.82,0.208
659.88,0.225
658.94,0.247
658.0,0.260
657.06,0.272
656.12,0.284
655.18,0.293
654.24,0.302
653.3,0.308
652.36,0.312
651.42,0.320
650.48,0.328
649.54,0.343
648.6,0.366
647.66,0.398
646.72,0.440
645.78,0.494
644.84,0.555
643.9,0.617
642.96,0.678
642.02,0.739
641.08,0.796
640.14,0.858
639.2,0.909
638.26,0.946
637.32,0.964
636.38,0.959
635.44,0.935
634.5,0.896
633.56,0.850
632.62,0.798
631.68,0.744
630.74,0.681
629.8,0.618
628.86,0.554
627.92,0.499
626.98,0.475
626.04,0.464
625.1,0.459
624.16,0.455
623.22,0.447
622.28,0.444
621.34,0.445
620.4,0.452
619.46,0.463
618.52,0.479
617.58,0.491
616.64,0.500
615.7,0.512
614.76,0.522
613.82,0.535
612.88,0.543
611.94,0.549
611.0,0.554
610.06,0.556
609.12,0.552
608.18,0.549
607.24,0.542
606.3,0.532
605.36,0.514
604.42,0.492
603.48,0.466
602.54,0.439
601.6,0.409
600.66,0.375
599.72,0.340
598.78,0.302
597.84,0.262
596.9,0.221
595.96,0.185
595.02,0.151
594.08,0.124
593.14,0.103
592.2,0.090
591.26,0.085
590.32,0.083
589.38,0.082
588.44,0.081
587.5,0.081
586.56,0.087
585.62,0.094
584.68,0.104
583.74,0.119
582.8,0.140
581.86,0.170
580.92,0.203
579.98,0.250
579.04,0.301
578.1,0.368
577.16,0.444
576.22,0.523
575.28,0.604
574.34,0.680
573.4,0.753
572.46,0.829
571.52,0.897
570.58,0.948
569.64,0.980
568.7,0.997
567.76,1.000
566.82,0.991
565.88,0.978
564.94,0.960
564.0,0.927
563.06,0.880
562.12,0.824
561.18,0.756
560.24,0.685
559.3,0.607
558.36,0.531
557.42,0.451
556.48,0.381
555.54,0.319
554.6,0.270
553.66,0.227
552.72,0.188
551.78,0.153
550.84,0.125
549.9,0.101
548.96,0.085
548.02,0.071
547.08,0.062
546.14,0.054
545.2,0.050
544.26,0.048
543.32,0.046
542.38,0.045
541.44,0.045
540.5,0.044
539.56,0.044
538.62,0.044
537.68,0.045
536.74,0.045
535.8,0.045
534.86,0.046
533.92,0.047
532.98,0.049
532.04,0.051
531.1,0.053
530.16,0.055
529.22,0.060
528.28,0.065
527.34,0.073
526.4,0.078
525.46,0.086
524.52,0.098
523.58,0.110
522.64,0.120
521.7,0.137
520.76,0.150
519.82,0.168
518.88,0.186
517.94,0.203
517.0,0.221
516.06,0.241
515.12,0.257
514.18,0.271
513.24,0.281
512.3,0.288
511.36,0.290
510.42,0.286
509.48,0.277
508.54,0.264
507.6,0.247
506.66,0.222
505.72,0.195
504.78,0.168
503.84,0.136
502.9,0.109
501.96,0.084
501.02,0.069
500.08,0.059
499.14,0.052
498.2,0.044
497.26,0.040
496.32,0.037
495.38,0.037
494.44,0.035
493.5,0.033
492.56,0.033
491.62,0.031
490.68,0.031
489.74,0.031
488.8,0.031
487.86,0.030
486.92,0.030
485.98,0.029
485.04,0.030
484.1,0.029
483.16,0.029
482.22,0.030
481.28,0.029
480.34,0.030
479.4,0.030
478.46,0.029
477.52,0.029
476.58,0.029
475.64,0.029
474.7,0.029
473.76,0.028
472.82,0.029
471.88,0.029
470.94,0.029
470.0,0.029
469.06,0.029
468.12,0.029
467.18,0.031
466.24,0.039
465.3,0.051
464.36,0.062
463.42,0.075
462.48,0.085
461.54,0.093
460.6,0.096
459.66,0.098
458.72,0.099
457.78,0.100
456.84,0.097
455.9,0.089
454.96,0.078
454.02,0.063
453.08,0.047
452.14,0.038
451.2,0.031
450.26,0.029
449.32,0.028
448.38,0.027
447.44,0.027
446.5,0.027
445.56,0.028
444.62,0.027
443.68,0.027
442.74,0.028
441.8,0.028
440.86,0.027
439.92,0.027
438.98,0.027
438.04,0.027
437.1,0.027
436.16,0.026
435.22,0.026
434.28,0.026
433.34,0.025
432.4,0.025
431.46,0.026
430.52,0.025
429.58,0.025
428.64,0.025
427.7,0.025
426.76,0.025
425.82,0.025
424.88,0.025
423.94,0.025
423.0,0.025
422.06,0.025
421.12,0.025
420.18,0.024
419.24,0.024
418.3,0.024
417.36,0.024
416.42,0.024
415.48,0.024
414.54,0.024
413.6,0.024
412.66,0.024
411.72,0.024
410.78,0.024
409.84,0.024
408.9,0.023
407.96,0.023
407.02,0.024
406.08,0.023
405.14,0.023
404.2,0.023
403.26,0.023
402.32,0.022
401.38,0.022
400.44,0.022
399.5,0.022
398.56,0.022
397.62,0.022
396.68,0.022
395.74,0.022
394.8,0.022
393.86,0.022
392.92,0.022
391.98,0.022
391.04,0.021
390.1,0.022
389.16,0.022
388.22,0.022
387.28,0.021
386.34,0.021
385.4,0.021
384.46,0.021
383.52,0.021
382.58,0.020
381.64,0.020
380.7,0.020
