wavelength,amplitude
879.0600000000001,0.388
878.15,0.386
877.24,0.411
876.33,0.441
875.4200000000001,0.460
874.51,0.435
873.6,0.433
872.69,0.436
871.7800000000001,0.457
870.87,0.484
869.96,0.523
869.0500000000001,0.561
868.14,0.634
867.23,0.734
866.32,0.875
865.4100000000001,0.973
864.5,1.000
863.59,0.940
862.6800000000001,0.827
861.77,0.685
860.86,0.581
859.95,0.497
859.0400000000001,0.449
858.13,0.453
857.22,0.443
856.3100000000001,0.463
855.4,0.470
854.49,0.470
853.58,0.466
852.6700000000001,0.474
851.76,0.455
850.85,0.451
849.94,0.452
849.03,0.467
848.12,0.426
847.21,0.435
846.3000000000001,0.449
845.39,0.472
844.48,0.558
843.57,0.581
842.6600000000001,0.598
841.75,0.583
840.84,0.555
839.9300000000001,0.479
839.02,0.407
838.11,0.365
837.2,0.346
836.2900000000001,0.315
835.38,0.298
834.47,0.283
833.5600000000001,0.265
832.65,0.272
831.74,0.242
830.83,0.262
829.9200000000001,0.255
829.01,0.255
828.1,0.273
827.19,0.268
826.28,0.250
825.37,0.240
824.46,0.228
823.5500000000001,0.224
822.64,0.201
821.73,0.205
820.82,0.212
819.9100000000001,0.214
819.0,0.218
818.09,0.202
817.1800000000001,0.207
816.27,0.215
815.36,0.220
814.45,0.204
813.5400000000001,0.223
812.63,0.228
811.72,0.221
810.8100000000001,0.214
809.9,0.219
808.99,0.244
808.08,0.271
807.1700000000001,0.276
806.26,0.293
805.35,0.321
804.44,0.320
803.53,0.298
802.62,0.255
801.71,0.245
800.8000000000001,0.205
799.89,0.198
798.98,0.212
798.07,0.224
797.1600000000001,0.231
796.25,0.267
795.34,0.360
794.4300000000001,0.473
793.52,0.575
792.61,0.643
791.7,0.608
790.7900000000001,0.533
789.88,0.452
788.97,0.370
788.0600000000001,0.279
787.15,0.242
786.24,0.235
785.33,0.265
784.4200000000001,0.278
783.51,0.303
782.6,0.289
781.69,0.299
780.78,0.317
779.87,0.299
778.96,0.307
778.0500000000001,0.311
777.14,0.316
776.23,0.306
775.32,0.316
774.4100000000001,0.357
773.5,0.414
772.59,0.444
771.6800000000001,0.439
770.77,0.419
769.86,0.345
768.95,0.283
768.0400000000001,0.246
767.13,0.226
766.22,0.189
765.3100000000001,0.163
764.4,0.151
763.49,0.143
762.58,0.147
761.6700000000001,0.153
760.76,0.137
759.85,0.136
758.94,0.136
758.03,0.140
757.12,0.140
756.21,0.133
755.3000000000001,0.120
754.39,0.110
753.48,0.116
752.57,0.122
751.6600000000001,0.125
750.75,0.124
749.84,0.120
748.9300000000001,0.113
748.02,0.114
747.11,0.112
746.2,0.104
745.2900000000001,0.105
744.38,0.106
743.47,0.101
742.5600000000001,0.094
741.65,0.091
740.74,0.100
739.83,0.094
738.9200000000001,0.102
738.01,0.103
737.1,0.103
736.19,0.116
735.28,0.110
734.37,0.105
733.46,0.100
732.5500000000001,0.104
731.64,0.104
730.73,0.108
729.82,0.097
728.91,0.094
728.0,0.092
727.09,0.096
726.1800000000001,0.097
725.27,0.096
724.36,0.094
723.45,0.089
722.5400000000001,0.098
721.63,0.089
720.72,0.085
719.8100000000001,0.088
718.9,0.094
717.99,0.092
717.08,0.089
716.1700000000001,0.088
715.26,0.078
714.35,0.081
713.44,0.083
712.53,0.088
711.62,0.100
710.71,0.097
709.8000000000001,0.095
708.89,0.098
707.98,0.090
707.07,0.083
706.16,0.098
705.25,0.096
704.34,0.091
703.4300000000001,0.085
702.52,0.087
701.61,0.084
700.7,0.082
699.7900000000001,0.077
698.88,0.072
697.97,0.070
697.0600000000001,0.072
696.15,0.074
695.24,0.075
694.33,0.072
693.4200000000001,0.068
692.51,0.070
691.6,0.069
690.69,0.074
689.78,0.081
688.87,0.075
687.96,0.081
687.0500000000001,0.081
686.14,0.074
685.23,0.072
684.32,0.077
683.41,0.081
682.5,0.072
681.59,0.072
680.6800000000001,0.080
679.77,0.080
678.86,0.080
677.95,0.086
677.0400000000001,0.083
676.13,0.085
675.22,0.080
674.3100000000001,0.082
673.4,0.081
672.49,0.078
671.58,0.083
670.6700000000001,0.083
669.76,0.088
668.85,0.086
667.94,0.079
667.03,0.091
666.12,0.081
665.21,0.087
664.3000000000001,0.086
663.39,0.082
662.48,0.092
661.57,0.093
660.66,0.098
659.75,0.100
658.84,0.092
657.9300000000001,0.094
657.02,0.089
656.11,0.084
655.2,0.086
654.2900000000001,0.083
653.38,0.092
652.47,0.092
651.5600000000001,0.095
650.65,0.090
649.74,0.100
648.83,0.094
647.9200000000001,0.088
647.01,0.084
646.1,0.084
645.19,0.085
644.28,0.089
643.37,0.089
642.46,0.089
641.5500000000001,0.089
640.64,0.088
639.73,0.094
638.82,0.087
637.91,0.083
637.0,0.090
636.09,0.089
635.1800000000001,0.085
634.27,0.082
633.36,0.089
632.45,0.095
631.5400000000001,0.090
630.63,0.089
629.72,0.082
628.8100000000001,0.084
627.9,0.083
626.99,0.080
626.08,0.070
625.1700000000001,0.069
624.26,0.069
623.35,0.080
622.44,0.080
621.53,0.079
620.62,0.075
619.71,0.075
618.8000000000001,0.067
617.89,0.067
616.98,0.070
616.07,0.073
615.16,0.072
614.25,0.073
613.34,0.075
612.4300000000001,0.072
611.52,0.064
610.61,0.070
609.7,0.070
608.7900000000001,0.069
607.88,0.067
606.97,0.068
606.0600000000001,0.065
605.15,0.062
604.24,0.063
603.33,0.062
602.4200000000001,0.067
601.51,0.064
600.6,0.063
599.69,0.062
598.78,0.066
597.87,0.061
596.96,0.065
596.0500000000001,0.067
595.14,0.065
594.23,0.064
593.32,0.060
592.41,0.064
591.5,0.063
590.59,0.063
589.6800000000001,0.060
588.77,0.060
587.86,0.059
586.95,0.061
586.04,0.064
585.13,0.061
584.22,0.064
583.3100000000001,0.068
582.4,0.071
581.49,0.075
580.58,0.077
579.6700000000001,0.072
578.76,0.067
577.85,0.064
576.94,0.061
576.03,0.060
575.12,0.066
574.21,0.068
573.3000000000001,0.066
572.39,0.065
571.48,0.071
570.57,0.066
569.66,0.065
568.75,0.064
567.84,0.061
566.9300000000001,0.070
566.02,0.068
565.11,0.067
564.2,0.065
563.29,0.064
562.38,0.060
561.47,0.056
560.5600000000001,0.056
559.65,0.055
558.74,0.057
557.83,0.060
556.9200000000001,0.062
556.01,0.061
555.1,0.055
554.19,0.057
553.28,0.060
552.37,0.057
551.46,0.056
550.5500000000001,0.061
549.64,0.063
548.73,0.066
547.82,0.063
546.91,0.063
546.0,0.066
545.09,0.059
544.1800000000001,0.059
543.27,0.057
542.36,0.053
541.45,0.053
540.54,0.052
539.63,0.051
538.72,0.051
537.8100000000001,0.060
536.9,0.055
535.99,0.053
535.08,0.053
534.1700000000001,0.054
533.26,0.053
532.35,0.055
531.44,0.056
530.53,0.051
529.62,0.049
528.71,0.049
527.8000000000001,0.046
526.89,0.046
525.98,0.049
525.07,0.050
524.16,0.047
523.25,0.049
522.34,0.048
521.4300000000001,0.044
520.52,0.045
519.61,0.047
518.7,0.044
517.79,0.047
516.88,0.048
515.97,0.050
515.0600000000001,0.049
514.15,0.051
513.24,0.050
512.33,0.049
511.42,0.049
510.51,0.051
509.6,0.051
508.69,0.048
507.78000000000003,0.051
506.87,0.053
505.96000000000004,0.048
505.05,0.053
504.14000000000004,0.055
503.23,0.054
502.32,0.050
501.41,0.054
500.5,0.050
499.59000000000003,0.049
498.68,0.053
497.77000000000004,0.044
496.86,0.044
495.95,0.047
495.04,0.046
494.13,0.045
493.22,0.044
492.31,0.044
491.40000000000003,0.043
490.49,0.046
489.58000000000004,0.051
488.67,0.047
487.76,0.043
486.85,0.042
485.94,0.044
485.03000000000003,0.049
484.12,0.044
483.21000000000004,0.045
482.3,0.047
481.39000000000004,0.047
480.48,0.052
479.57,0.048
478.66,0.049
477.75,0.049
476.84000000000003,0.047
475.93,0.050
475.02000000000004,0.052
474.11,0.052
473.2,0.051
472.29,0.051
471.38,0.053
470.47,0.056
469.56,0.057
468.65000000000003,0.058
467.74,0.054
466.83000000000004,0.060
465.92,0.054
465.01,0.053
464.1,0.056
463.19,0.058
462.28000000000003,0.054
461.37,0.058
460.46000000000004,0.058
459.55,0.052
458.64000000000004,0.057
457.73,0.054
456.82,0.054
455.91,0.054
455.0,0.057
454.09000000000003,0.054
453.18,0.054
452.27000000000004,0.055
451.36,0.055
450.45,0.062
449.54,0.057
448.63,0.058
447.72,0.059
446.81,0.058
445.90000000000003,0.060
444.99,0.053
444.08000000000004,0.053
443.17,0.055
442.26,0.058
441.35,0.055
440.44,0.055
439.53000000000003,0.056
438.62,0.059
437.71000000000004,0.060
436.8,0.065
435.89000000000004,0.065
434.98,0.064
434.07,0.061
433.16,0.062
432.25,0.061
431.34000000000003,0.064
430.43,0.064
429.52000000000004,0.063
428.61,0.071
427.7,0.066
426.79,0.069
425.88,0.069
424.97,0.070
424.06,0.072
423.15000000000003,0.070
422.24,0.073
421.33000000000004,0.074
420.42,0.070
419.51,0.073
418.6,0.070
417.69,0.069
416.78000000000003,0.070
415.87,0.074
414.96000000000004,0.074
414.05,0.072
413.14,0.071
412.23,0.069
411.32,0.071
410.41,0.072
409.5,0.069
408.59000000000003,0.069
407.68,0.073
406.77000000000004,0.070
405.86,0.067
404.95,0.065
404.04,0.063
403.13,0.061
402.22,0.065
401.31,0.067
400.40000000000003,0.068
399.49,0.067
398.58000000000004,0.068
397.67,0.062
396.76,0.061
395.85,0.062
394.94,0.064
394.03000000000003,0.059
393.12,0.061
392.21000000000004,0.058
391.3,0.057
390.39,0.060
389.48,0.057
388.57,0.055
387.66,0.060
386.75,0.060
385.84000000000003,0.058
384.93,0.058
384.02000000000004,0.052
383.11,0.053
382.2,0.051
381.29,0.051
380.38,0.054
