wavelength,amplitude
999.1,0.115
998.13,0.115
997.16,0.115
996.19,0.115
995.22,0.115
994.25,0.115
993.28,0.115
992.31,0.115
991.34,0.115
990.37,0.115
989.4,0.115
988.43,0.115
987.46,0.115
986.49,0.115
985.52,0.115
984.55,0.115
983.58,0.115
982.61,0.115
981.64,0.115
980.67,0.115
979.7,0.115
978.73,0.115
977.76,0.115
976.79,0.115
975.82,0.115
974.85,0.115
973.88,0.115
972.91,0.115
971.94,0.115
970.97,0.115
970.0,0.115
969.03,0.115
968.06,0.115
967.09,0.115
966.12,0.115
965.15,0.115
964.18,0.115
963.21,0.115
962.24,0.115
961.27,0.115
960.3,0.115
959.33,0.115
958.36,0.115
957.39,0.115
956.42,0.115
955.45,0.115
954.48,0.115
953.51,0.115
952.54,0.115
951.57,0.115
950.6,0.115
949.63,0.115
948.66,0.115
947.69,0.115
946.72,0.115
945.75,0.115
944.78,0.115
943.81,0.115
942.84,0.115
941.87,0.115
940.9,0.115
939.93,0.115
938.96,0.115
937.99,0.115
937.02,0.115
936.05,0.115
935.08,0.115
934.11,0.115
933.14,0.115
932.17,0.115
931.2,0.115
930.23,0.115
929.26,0.115
928.29,0.115
927.32,0.115
926.35,0.115
925.38,0.115
924.41,0.115
923.44,0.115
922.47,0.115
921.5,0.115
920.53,0.115
919.56,0.115
918.59,0.115
917.62,0.115
916.65,0.115
915.68,0.115
914.71,0.115
913.74,0.115
912.77,0.115
911.8,0.115
910.83,0.115
909.86,0.115
908.89,0.115
907.92,0.115
906.95,0.115
905.98,0.115
905.01,0.115
904.04,0.115
903.07,0.115
902.1,0.115
901.13,0.115
900.16,0.115
899.19,0.115
898.22,0.115
897.25,0.115
896.28,0.115
895.31,0.115
894.34,0.115
893.37,0.115
892.4,0.115
891.43,0.115
890.46,0.115
889.49,0.115
888.52,0.115
887.55,0.115
886.58,0.115
885.61,0.115
884.64,0.115
883.67,0.115
882.7,0.115
881.73,0.115
880.76,0.115
879.79,0.115
878.82,0.115
877.85,0.115
876.88,0.115
875.91,0.115
874.94,0.115
873.97,0.115
873.0,0.115
872.03,0.115
871.06,0.115
870.09,0.115
869.12,0.115
868.15,0.115
867.18,0.115
866.21,0.115
865.24,0.115
864.27,0.115
863.3,0.115
862.33,0.115
861.36,0.115
860.39,0.115
859.42,0.115
858.45,0.115
857.48,0.115
856.51,0.115
855.54,0.115
854.57,0.115
853.6,0.115
852.63,0.115
851.66,0.115
850.69,0.115
849.72,0.115
848.75,0.115
847.78,0.115
846.81,0.115
845.84,0.115
844.87,0.115
843.9,0.115
842.93,0.115
841.96,0.115
840.99,0.115
840.02,0.115
839.05,0.115
838.08,0.115
837.11,0.115
836.14,0.115
835.17,0.115
834.2,0.115
833.23,0.115
832.26,0.115
831.29,0.115
830.32,0.115
829.35,0.115
828.38,0.115
827.41,0.115
826.44,0.115
825.47,0.115
824.5,0.115
823.53,0.115
822.56,0.115
821.59,0.115
820.62,0.115
819.65,0.115
818.68,0.115
817.71,0.115
816.74,0.115
815.77,0.115
814.8,0.115
813.83,0.115
812.86,0.115
811.89,0.115
810.92,0.115
809.95,0.115
808.98,0.115
808.01,0.114
807.04,0.114
806.07,0.113
805.1,0.113
804.13,0.112
803.16,0.112
802.19,0.111
801.22,0.111
800.25,0.111
799.28,0.110
798.31,0.110
797.34,0.109
796.37,0.109
795.4,0.108
794.43,0.108
793.46,0.108
792.49,0.108
791.52,0.108
790.55,0.108
789.58,0.108
788.61,0.106
787.64,0.105
786.67,0.106
785.7,0.107
784.73,0.126
783.76,0.162
782.79,0.227
781.82,0.292
780.85,0.290
779.88,0.265
778.91,0.236
777.94,0.216
776.97,0.222
776.0,0.278
775.03,0.306
774.06,0.284
773.09,0.256
772.12,0.240
771.15,0.220
770.18,0.191
769.21,0.137
768.24,0.124
767.27,0.112
766.3,0.108
765.33,0.100
764.36,0.100
763.39,0.096
762.42,0.096
761.45,0.096
760.48,0.095
759.51,0.095
758.54,0.095
757.57,0.094
756.6,0.094
755.63,0.094
754.66,0.094
753.69,0.093
752.72,0.093
751.75,0.093
750.78,0.092
749.81,0.092
748.84,0.092
747.87,0.091
746.9,0.091
745.93,0.091
744.96,0.091
743.99,0.090
743.02,0.090
742.05,0.090
741.08,0.089
740.11,0.089
739.14,0.089
738.17,0.089
737.2,0.088
736.23,0.088
735.26,0.088
734.29,0.087
733.32,0.087
732.35,0.087
731.38,0.087
730.41,0.086
729.44,0.086
728.47,0.086
727.5,0.086
726.53,0.085
725.56,0.085
724.59,0.085
723.62,0.087
722.65,0.087
721.68,0.087
720.71,0.084
719.74,0.084
718.77,0.083
717.8,0.083
716.83,0.083
715.86,0.083
714.89,0.082
713.92,0.082
712.95,0.082
711.98,0.082
711.01,0.081
710.04,0.081
709.07,0.081
708.1,0.081
707.13,0.081
706.16,0.080
705.19,0.080
704.22,0.080
703.25,0.080
702.28,0.079
701.31,0.079
700.34,0.079
699.37,0.079
698.4,0.079
697.43,0.078
696.46,0.078
695.49,0.078
694.52,0.078
693.55,0.077
692.58,0.077
691.61,0.077
690.64,0.077
689.67,0.077
688.7,0.076
687.73,0.076
686.76,0.076
685.79,0.076
684.82,0.076
683.85,0.075
682.88,0.075
681.91,0.075
680.94,0.075
679.97,0.075
679.0,0.074
678.03,0.074
677.06,0.074
676.09,0.074
675.12,0.074
674.15,0.073
673.18,0.073
672.21,0.073
671.24,0.079
670.27,0.073
669.3,0.073
668.33,0.072
667.36,0.072
666.39,0.072
665.42,0.072
664.45,0.072
663.48,0.071
662.51,0.071
661.54,0.071
660.57,0.071
659.6,0.071
658.63,0.071
657.66,0.070
656.69,0.070
655.72,0.070
654.75,0.070
653.78,0.070
652.81,0.070
651.84,0.069
650.87,0.069
649.9,0.069
648.93,0.069
647.96,0.069
646.99,0.069
646.02,0.068
645.05,0.068
644.08,0.068
643.11,0.068
642.14,0.068
641.17,0.068
640.2,0.067
639.23,0.080
638.26,0.114
637.29,0.189
636.32,0.271
635.35,0.351
634.38,0.389
633.41,0.528
632.44,0.644
631.47,0.710
630.5,0.782
629.53,0.899
628.56,1.000
627.59,0.996
626.62,0.903
625.65,0.791
624.68,0.620
623.71,0.500
622.74,0.388
621.77,0.268
620.8,0.167
619.83,0.121
618.86,0.090
617.89,0.075
616.92,0.068
615.95,0.064
614.98,0.064
614.01,0.063
613.04,0.063
612.07,0.067
611.1,0.067
610.13,0.065
609.16,0.065
608.19,0.063
607.22,0.062
606.25,0.062
605.28,0.062
604.31,0.062
603.34,0.062
602.37,0.062
601.4,0.062
600.43,0.061
599.46,0.061
598.49,0.061
597.52,0.061
596.55,0.061
595.58,0.061
594.61,0.061
593.64,0.061
592.67,0.060
591.7,0.060
590.73,0.060
589.76,0.060
588.79,0.060
587.82,0.060
586.85,0.060
585.88,0.060
584.91,0.059
583.94,0.060
582.97,0.060
582.0,0.061
581.03,0.061
580.06,0.061
579.09,0.062
578.12,0.062
577.15,0.063
576.18,0.063
575.21,0.064
574.24,0.064
573.27,0.064
572.3,0.065
571.33,0.065
570.36,0.065
569.39,0.064
568.42,0.064
567.45,0.063
566.48,0.062
565.51,0.061
564.54,0.061
563.57,0.060
562.6,0.060
561.63,0.059
560.66,0.058
559.69,0.058
558.72,0.057
557.75,0.056
556.78,0.056
555.81,0.056
554.84,0.056
553.87,0.056
552.9,0.056
551.93,0.055
550.96,0.055
549.99,0.055
549.02,0.055
548.05,0.055
547.08,0.055
546.11,0.055
545.14,0.055
544.17,0.055
543.2,0.055
542.23,0.054
541.26,0.054
540.29,0.054
539.32,0.054
538.35,0.054
537.38,0.054
536.41,0.054
535.44,0.054
534.47,0.054
533.5,0.053
532.53,0.053
531.56,0.053
530.59,0.053
529.62,0.053
528.65,0.053
527.68,0.053
526.71,0.053
525.74,0.053
524.77,0.053
523.8,0.052
522.83,0.052
521.86,0.052
520.89,0.052
519.92,0.052
518.95,0.052
517.98,0.052
517.01,0.052
516.04,0.052
515.07,0.052
514.1,0.052
513.13,0.051
512.16,0.051
511.19,0.051
510.22,0.051
509.25,0.051
508.28,0.051
507.31,0.051
506.34,0.051
505.37,0.051
504.4,0.051
503.43,0.051
502.46,0.050
501.49,0.050
500.52,0.050
499.55,0.050
498.58,0.050
497.61,0.050
496.64,0.050
495.67,0.050
494.7,0.050
493.73,0.050
492.76,0.050
491.79,0.049
490.82,0.049
489.85,0.049
488.88,0.049
487.91,0.049
486.94,0.049
485.97,0.049
485.0,0.049
484.03,0.049
483.06,0.049
482.09,0.049
481.12,0.049
480.15,0.048
479.18,0.048
478.21,0.048
477.24,0.048
476.27,0.048
475.3,0.048
474.33,0.048
473.36,0.048
472.39,0.048
471.42,0.048
470.45,0.048
469.48,0.048
468.51,0.048
467.54,0.047
466.57,0.047
465.6,0.047
464.63,0.047
463.66,0.047
462.69,0.047
461.72,0.047
460.75,0.047
459.78,0.047
458.81,0.047
457.84,0.047
456.87,0.047
455.9,0.046
454.93,0.046
453.96,0.046
452.99,0.046
452.02,0.046
451.05,0.046
450.08,0.046
449.11,0.046
448.14,0.046
447.17,0.046
446.2,0.046
445.23,0.046
444.26,0.046
443.29,0.046
442.32,0.045
441.35,0.045
440.38,0.045
439.41,0.045
438.44,0.045
437.47,0.045
436.5,0.045
435.53,0.045
434.56,0.045
433.59,0.045
432.62,0.045
431.65,0.045
430.68,0.045
429.71,0.045
428.74,0.044
427.77,0.044
426.8,0.044
425.83,0.044
424.86,0.044
423.89,0.044
422.92,0.044
421.95,0.044
420.98,0.044
420.01,0.044
419.04,0.044
418.07,0.044
417.1,0.044
416.13,0.044
415.16,0.044
414.19,0.043
413.22,0.043
412.25,0.043
411.28,0.043
410.31,0.043
409.34,0.043
408.37,0.043
407.4,0.043
406.43,0.043
405.46,0.043
404.49,0.043
403.52,0.043
402.55,0.043
401.58,0.043
400.61,0.043
399.64,0.042
398.67,0.042
397.7,0.042
396.73,0.042
395.76,0.042
394.79,0.042
393.82,0.042
392.85,0.042
391.88,0.042
390.91,0.042
389.94,0.042
388.97,0.042
388.0,0.042
387.03,0.042
386.06,0.042
385.09,0.042
384.12,0.041
383.15,0.041
382.18,0.041
381.21,0.041
380.24,0.041
