wavelength,amplitude
755.37,0.008
754.6,0.006
753.83,0.006
753.0600000000001,0.006
752.29,0.006
751.52,0.006
750.75,0.006
749.98,0.006
749.21,0.006
748.44,0.006
747.6700000000001,0.006
746.9,0.006
746.13,0.006
745.36,0.006
744.59,0.006
743.82,0.006
743.0500000000001,0.006
742.28,0.006
741.51,0.006
740.74,0.006
739.97,0.006
739.2,0.006
738.4300000000001,0.006
737.66,0.006
736.89,0.006
736.12,0.006
735.35,0.006
734.58,0.006
733.8100000000001,0.006
733.04,0.006
732.27,0.006
731.5,0.006
730.73,0.006
729.96,0.006
729.19,0.006
728.4200000000001,0.005
727.65,0.006
726.88,0.005
726.11,0.005
725.34,0.005
724.57,0.005
723.8000000000001,0.005
723.03,0.005
722.26,0.005
721.49,0.005
720.72,0.005
719.95,0.005
719.1800000000001,0.005
718.41,0.005
717.64,0.005
716.87,0.005
716.1,0.005
715.33,0.005
714.5600000000001,0.005
713.79,0.005
713.02,0.005
712.25,0.005
711.48,0.005
710.71,0.004
709.94,0.004
709.1700000000001,0.004
708.4,0.003
707.63,0.003
706.86,0.003
706.09,0.003
705.32,0.003
704.5500000000001,0.003
703.78,0.003
703.01,0.003
702.24,0.003
701.47,0.003
700.7,0.003
699.9300000000001,0.003
699.16,0.003
698.39,0.003
697.62,0.003
696.85,0.003
696.08,0.003
695.3100000000001,0.003
694.54,0.003
693.77,0.003
693.0,0.003
692.23,0.004
691.46,0.003
690.69,0.004
689.9200000000001,0.005
689.15,0.004
688.38,0.006
687.61,0.005
686.84,0.007
686.07,0.007
685.3000000000001,0.007
684.53,0.008
683.76,0.008
682.99,0.008
682.22,0.008
681.45,0.008
680.6800000000001,0.007
679.91,0.007
679.14,0.006
678.37,0.005
677.6,0.006
676.83,0.004
676.0600000000001,0.005
675.29,0.005
674.52,0.005
673.75,0.005
672.98,0.005
672.21,0.005
671.44,0.005
670.67,0.004
669.9,0.004
669.13,0.005
668.36,0.005
667.59,0.005
666.82,0.005
666.0500000000001,0.005
665.28,0.005
664.51,0.005
663.74,0.006
662.97,0.006
662.2,0.006
661.4300000000001,0.006
660.66,0.006
659.89,0.006
659.12,0.007
658.35,0.007
657.58,0.007
656.8100000000001,0.007
656.04,0.007
655.27,0.008
654.5,0.008
653.73,0.010
652.96,0.011
652.19,0.012
651.42,0.013
650.65,0.014
649.88,0.015
649.11,0.017
648.34,0.018
647.57,0.018
646.8000000000001,0.019
646.03,0.020
645.26,0.022
644.49,0.021
643.72,0.022
642.95,0.022
642.1800000000001,0.022
641.41,0.020
640.64,0.018
639.87,0.018
639.1,0.017
638.33,0.017
637.5600000000001,0.016
636.79,0.017
636.02,0.016
635.25,0.016
634.48,0.017
633.71,0.015
632.94,0.016
632.17,0.016
631.4,0.016
630.63,0.017
629.86,0.018
629.09,0.018
628.32,0.022
627.5500000000001,0.022
626.78,0.029
626.01,0.033
625.24,0.041
624.47,0.048
623.7,0.053
622.9300000000001,0.058
622.16,0.064
621.39,0.070
620.62,0.068
619.85,0.064
619.08,0.059
618.3100000000001,0.053
617.54,0.045
616.77,0.037
616.0,0.030
615.23,0.024
614.46,0.022
613.69,0.020
612.92,0.021
612.15,0.022
611.38,0.023
610.61,0.024
609.84,0.027
609.07,0.032
608.3000000000001,0.038
607.53,0.045
606.76,0.051
605.99,0.060
605.22,0.069
604.45,0.079
603.6800000000001,0.088
602.91,0.097
602.14,0.104
601.37,0.110
600.6,0.116
599.83,0.122
599.0600000000001,0.124
598.29,0.131
597.52,0.144
596.75,0.165
595.98,0.199
595.21,0.255
594.44,0.330
593.67,0.427
592.9,0.538
592.13,0.661
591.36,0.778
590.59,0.887
589.82,0.962
589.0500000000001,1.000
588.28,0.998
587.51,0.969
586.74,0.914
585.97,0.828
585.2,0.724
584.4300000000001,0.601
583.66,0.460
582.89,0.324
582.12,0.215
581.35,0.140
580.58,0.107
579.8100000000001,0.094
579.04,0.087
578.27,0.082
577.5,0.080
576.73,0.080
575.96,0.082
575.19,0.083
574.42,0.085
573.65,0.085
572.88,0.083
572.11,0.076
571.34,0.073
570.57,0.066
569.8000000000001,0.061
569.03,0.051
568.26,0.041
567.49,0.033
566.72,0.032
565.95,0.031
565.1800000000001,0.034
564.41,0.038
563.64,0.046
562.87,0.059
562.1,0.072
561.33,0.086
560.5600000000001,0.103
559.79,0.117
559.02,0.129
558.25,0.141
557.48,0.148
556.71,0.152
555.94,0.152
555.17,0.149
554.4,0.144
553.63,0.136
552.86,0.127
552.09,0.116
551.32,0.104
550.5500000000001,0.091
549.78,0.081
549.01,0.069
548.24,0.060
547.47,0.052
546.7,0.045
545.9300000000001,0.040
545.16,0.037
544.39,0.034
543.62,0.033
542.85,0.032
542.08,0.032
541.3100000000001,0.032
540.54,0.033
539.77,0.033
539.0,0.032
538.23,0.032
537.46,0.031
536.69,0.030
535.92,0.029
535.15,0.029
534.38,0.029
533.61,0.030
532.84,0.032
532.07,0.035
531.3000000000001,0.039
530.53,0.043
529.76,0.048
528.99,0.053
528.22,0.060
527.45,0.066
526.6800000000001,0.072
525.91,0.077
525.14,0.086
524.37,0.097
523.6,0.109
522.83,0.122
522.0600000000001,0.135
521.29,0.145
520.52,0.152
519.75,0.156
518.98,0.154
518.21,0.148
517.44,0.137
516.67,0.122
515.9,0.108
515.13,0.093
514.36,0.079
513.59,0.068
512.82,0.060
512.0500000000001,0.054
511.28000000000003,0.049
510.51,0.044
509.74,0.043
508.97,0.041
508.2,0.040
507.43,0.040
506.66,0.041
505.89,0.041
505.12,0.043
504.35,0.045
503.58,0.050
502.81,0.059
502.04,0.072
501.27000000000004,0.092
500.5,0.120
499.73,0.156
498.96000000000004,0.206
498.19,0.260
497.42,0.317
496.65000000000003,0.370
495.88,0.410
495.11,0.434
494.34000000000003,0.446
493.57,0.439
492.8,0.415
492.03000000000003,0.372
491.26,0.324
490.49,0.272
489.72,0.224
488.95,0.184
488.18,0.160
487.41,0.155
486.64,0.161
485.87,0.172
485.1,0.183
484.33,0.187
483.56,0.183
482.79,0.172
482.02000000000004,0.157
481.25,0.135
480.48,0.114
479.71000000000004,0.096
478.94,0.082
478.17,0.072
477.40000000000003,0.066
476.63,0.063
475.86,0.061
475.09000000000003,0.061
474.32,0.060
473.55,0.061
472.78000000000003,0.061
472.01,0.062
471.24,0.062
470.47,0.063
469.7,0.066
468.93,0.070
468.16,0.077
467.39,0.087
466.62,0.102
465.85,0.120
465.08,0.137
464.31,0.153
463.54,0.165
462.77000000000004,0.172
462.0,0.171
461.23,0.164
460.46000000000004,0.153
459.69,0.136
458.92,0.118
458.15000000000003,0.099
457.38,0.082
456.61,0.070
455.84000000000003,0.061
455.07,0.056
454.3,0.053
453.53000000000003,0.052
452.76,0.052
451.99,0.052
451.22,0.052
450.45,0.053
449.68,0.053
448.91,0.053
448.14,0.055
447.37,0.056
446.6,0.058
445.83,0.062
445.06,0.068
444.29,0.077
443.52,0.089
442.75,0.108
441.98,0.129
441.21000000000004,0.152
440.44,0.174
439.67,0.190
438.90000000000003,0.198
438.13,0.203
437.36,0.203
436.59000000000003,0.202
435.82,0.196
435.05,0.188
434.28000000000003,0.176
433.51,0.159
432.74,0.143
431.97,0.128
431.2,0.119
430.43,0.114
429.66,0.112
428.89,0.112
428.12,0.112
427.35,0.111
426.58,0.109
425.81,0.105
425.04,0.100
424.27,0.094
423.5,0.087
422.73,0.079
421.96000000000004,0.072
421.19,0.067
420.42,0.062
419.65000000000003,0.059
418.88,0.057
418.11,0.055
417.34000000000003,0.054
416.57,0.054
415.8,0.053
415.03000000000003,0.054
414.26,0.054
413.49,0.054
412.72,0.053
411.95,0.054
411.18,0.054
410.41,0.056
409.64,0.057
408.87,0.060
408.1,0.064
407.33,0.068
406.56,0.071
405.79,0.075
405.02,0.079
404.25,0.082
403.48,0.083
402.71000000000004,0.084
401.94,0.084
401.17,0.083
400.40000000000003,0.082
399.63,0.080
398.86,0.079
398.09000000000003,0.079
397.32,0.078
396.55,0.078
395.78000000000003,0.078
395.01,0.080
394.24,0.082
393.47,0.084
392.7,0.085
391.93,0.085
391.16,0.086
390.39,0.085
389.62,0.085
388.85,0.085
388.08,0.085
387.31,0.086
386.54,0.090
385.77,0.095
385.0,0.106
384.23,0.122
383.46000000000004,0.143
382.69,0.167
381.92,0.188
381.15000000000003,0.206
380.38,0.218
