wavelength,amplitude
999.22,0.000
998.28,0.000
997.34,0.000
996.4,0.000
995.46,0.000
994.52,0.000
993.58,0.000
992.64,0.000
991.7,0.000
990.76,0.000
989.82,0.000
988.88,0.000
987.94,0.000
987.0,0.000
986.06,0.000
985.12,0.000
984.18,0.000
983.24,0.000
982.3,0.000
981.36,0.000
980.42,0.000
979.48,0.000
978.54,0.000
977.6,0.000
976.66,0.000
975.72,0.000
974.78,0.000
973.84,0.000
972.9,0.000
971.96,0.000
971.02,0.000
970.08,0.000
969.14,0.001
968.2,0.001
967.26,0.001
966.32,0.001
965.38,0.001
964.44,0.001
963.5,0.000
962.56,0.000
961.62,0.000
960.68,0.000
959.74,0.000
958.8,0.000
957.86,0.000
956.92,0.000
955.98,0.000
955.04,0.000
954.1,0.000
953.16,0.000
952.22,0.000
951.28,0.000
950.34,0.000
949.4,0.000
948.46,0.000
947.52,0.000
946.58,0.000
945.64,0.000
944.7,0.000
943.76,0.000
942.82,0.000
941.88,0.000
940.94,0.000
940.0,0.000
939.06,0.000
938.12,0.000
937.18,0.000
936.24,0.000
935.3,0.000
934.36,0.000
933.42,0.000
932.48,0.000
931.54,0.000
930.6,0.000
929.66,0.000
928.72,0.000
927.78,0.000
926.84,0.000
925.9,0.000
924.96,0.000
924.02,0.000
923.08,0.000
922.14,0.000
921.2,0.000
920.26,0.000
919.32,0.000
918.38,0.000
917.44,0.000
916.5,0.000
915.56,0.000
914.62,0.000
913.68,0.000
912.74,0.000
911.8,0.000
910.86,0.000
909.92,0.000
908.98,0.000
908.04,0.000
907.1,0.000
906.16,0.000
905.22,0.000
904.28,0.000
903.34,0.000
902.4,0.000
901.46,0.000
900.52,0.000
899.58,0.000
898.64,0.000
897.7,0.000
896.76,0.000
895.82,0.000
894.88,0.000
893.94,0.000
893.0,0.000
892.06,0.000
891.12,0.000
890.18,0.000
889.24,0.000
888.3,0.000
887.36,0.000
886.42,0.000
885.48,0.000
884.54,0.000
883.6,0.000
882.66,0.000
881.72,0.000
880.78,0.000
879.84,0.000
878.9,0.000
877.96,0.000
877.02,0.000
876.08,0.000
875.14,0.000
874.2,0.000
873.26,0.000
872.32,0.000
871.38,0.000
870.44,0.000
869.5,0.000
868.56,0.000
867.62,0.000
866.68,0.000
865.74,0.000
864.8,0.000
863.86,0.000
862.92,0.000
861.98,0.000
861.04,0.000
860.1,0.000
859.16,0.000
858.22,0.000
857.28,0.000
856.34,0.000
855.4,0.000
854.46,0.000
853.52,0.000
852.58,0.000
851.64,0.000
850.7,0.000
849.76,0.000
848.82,0.000
847.88,0.000
846.94,0.000
846.0,0.000
845.06,0.000
844.12,0.000
843.18,0.000
842.24,0.000
841.3,0.000
840.36,0.000
839.42,0.000
838.48,0.000
837.54,0.000
836.6,0.000
835.66,0.000
834.72,0.000
833.78,0.000
832.84,0.000
831.9,0.000
830.96,0.000
830.02,0.000
829.08,0.000
828.14,0.000
827.2,0.000
826.26,0.000
825.32,0.000
824.38,0.000
823.44,0.000
822.5,0.000
821.56,0.000
820.62,0.000
819.68,0.000
818.74,0.000
817.8,0.000
816.86,0.000
815.92,0.000
814.98,0.000
814.04,0.001
813.1,0.003
812.16,0.006
811.22,0.008
810.28,0.009
809.34,0.011
808.4,0.011
807.46,0.011
806.52,0.012
805.58,0.014
804.64,0.017
803.7,0.016
802.76,0.015
801.82,0.012
800.88,0.007
799.94,0.003
799.0,0.000
798.06,0.000
797.12,0.000
796.18,0.000
795.24,0.000
794.3,0.000
793.36,0.000
792.42,0.000
791.48,0.000
790.54,0.000
789.6,0.000
788.66,0.000
787.72,0.000
786.78,0.000
785.84,0.000
784.9,0.000
783.96,0.000
783.02,0.000
782.08,0.000
781.14,0.000
780.2,0.000
779.26,0.000
778.32,0.000
777.38,0.000
776.44,0.000
775.5,0.000
774.56,0.000
773.62,0.000
772.68,0.000
771.74,0.000
770.8,0.000
769.86,0.000
768.92,0.000
767.98,0.000
767.04,0.000
766.1,0.000
765.16,0.000
764.22,0.000
763.28,0.000
762.34,0.001
761.4,0.001
760.46,0.001
759.52,0.001
758.58,0.003
757.64,0.003
756.7,0.004
755.76,0.006
754.82,0.008
753.88,0.011
752.94,0.019
752.0,0.036
751.06,0.064
750.12,0.088
749.18,0.109
748.24,0.125
747.3,0.138
746.36,0.150
745.42,0.161
744.48,0.176
743.54,0.193
742.6,0.207
741.66,0.185
740.72,0.147
739.78,0.109
738.84,0.078
737.9,0.056
736.96,0.049
736.02,0.048
735.08,0.047
734.14,0.050
733.2,0.057
732.26,0.066
731.32,0.080
730.38,0.096
729.44,0.115
728.5,0.145
727.56,0.200
726.62,0.286
725.68,0.390
724.74,0.492
723.8,0.588
722.86,0.686
721.92,0.761
720.98,0.818
720.04,0.851
719.1,0.907
718.16,0.941
717.22,0.929
716.28,0.863
715.34,0.754
714.4,0.631
713.46,0.491
712.52,0.371
711.58,0.275
710.64,0.233
709.7,0.203
708.76,0.177
707.82,0.150
706.88,0.128
705.94,0.107
705.0,0.091
704.06,0.076
703.12,0.064
702.18,0.054
701.24,0.047
700.3,0.039
699.36,0.034
698.42,0.029
697.48,0.025
696.54,0.023
695.6,0.020
694.66,0.018
693.72,0.016
692.78,0.013
691.84,0.012
690.9,0.012
689.96,0.012
689.02,0.012
688.08,0.012
687.14,0.011
686.2,0.011
685.26,0.012
684.32,0.014
683.38,0.020
682.44,0.040
681.5,0.074
680.56,0.124
679.62,0.178
678.68,0.222
677.74,0.260
676.8,0.293
675.86,0.327
674.92,0.364
673.98,0.389
673.04,0.389
672.1,0.362
671.16,0.311
670.22,0.251
669.28,0.193
668.34,0.146
667.4,0.115
666.46,0.092
665.52,0.079
664.58,0.070
663.64,0.064
662.7,0.057
661.76,0.050
660.82,0.045
659.88,0.041
658.94,0.037
658.0,0.033
657.06,0.028
656.12,0.024
655.18,0.021
654.24,0.019
653.3,0.018
652.36,0.015
651.42,0.014
650.48,0.014
649.54,0.013
648.6,0.013
647.66,0.013
646.72,0.012
645.78,0.012
644.84,0.012
643.9,0.012
642.96,0.012
642.02,0.013
641.08,0.013
640.14,0.011
639.2,0.011
638.26,0.011
637.32,0.011
636.38,0.011
635.44,0.011
634.5,0.012
633.56,0.011
632.62,0.012
631.68,0.012
630.74,0.013
629.8,0.013
628.86,0.013
627.92,0.013
626.98,0.014
626.04,0.015
625.1,0.015
624.16,0.016
623.22,0.016
622.28,0.016
621.34,0.018
620.4,0.018
619.46,0.020
618.52,0.020
617.58,0.022
616.64,0.023
615.7,0.024
614.76,0.024
613.82,0.024
612.88,0.025
611.94,0.026
611.0,0.027
610.06,0.027
609.12,0.028
608.18,0.029
607.24,0.031
606.3,0.033
605.36,0.033
604.42,0.036
603.48,0.040
602.54,0.044
601.6,0.048
600.66,0.053
599.72,0.057
598.78,0.066
597.84,0.074
596.9,0.088
595.96,0.104
595.02,0.135
594.08,0.207
593.14,0.328
592.2,0.466
591.26,0.606
590.32,0.729
589.38,0.833
588.44,0.939
587.5,1.000
586.56,0.997
585.62,0.933
584.68,0.846
583.74,0.730
582.8,0.596
581.86,0.470
580.92,0.403
579.98,0.362
579.04,0.333
578.1,0.307
577.16,0.280
576.22,0.245
575.28,0.214
574.34,0.188
573.4,0.166
572.46,0.146
571.52,0.128
570.58,0.113
569.64,0.099
568.7,0.084
567.76,0.070
566.82,0.058
565.88,0.047
564.94,0.039
564.0,0.033
563.06,0.027
562.12,0.023
561.18,0.018
560.24,0.016
559.3,0.014
558.36,0.011
557.42,0.010
556.48,0.009
555.54,0.008
554.6,0.007
553.66,0.007
552.72,0.006
551.78,0.006
550.84,0.005
549.9,0.005
548.96,0.005
548.02,0.004
547.08,0.004
546.14,0.003
545.2,0.003
544.26,0.003
543.32,0.002
542.38,0.002
541.44,0.002
540.5,0.002
539.56,0.002
538.62,0.001
537.68,0.001
536.74,0.001
535.8,0.001
534.86,0.001
533.92,0.001
532.98,0.001
532.04,0.001
531.1,0.001
530.16,0.001
529.22,0.000
528.28,0.000
527.34,0.000
526.4,0.000
525.46,0.000
524.52,0.000
523.58,0.000
522.64,0.000
521.7,0.000
520.76,0.000
519.82,0.000
518.88,0.000
517.94,0.000
517.0,0.000
516.06,0.000
515.12,0.000
514.18,0.000
513.24,0.000
512.3,0.000
511.36,0.000
510.42,0.001
509.48,0.002
508.54,0.004
507.6,0.009
506.66,0.016
505.72,0.029
504.78,0.064
503.84,0.133
502.9,0.203
501.96,0.272
501.02,0.337
500.08,0.389
499.14,0.363
498.2,0.303
497.26,0.219
496.32,0.144
495.38,0.097
494.44,0.104
493.5,0.128
492.56,0.155
491.62,0.186
490.68,0.207
489.74,0.185
488.8,0.141
487.86,0.087
486.92,0.048
485.98,0.030
485.04,0.021
484.1,0.016
483.16,0.011
482.22,0.008
481.28,0.007
480.34,0.005
479.4,0.004
478.46,0.002
477.52,0.001
476.58,0.002
475.64,0.002
474.7,0.005
473.76,0.013
472.82,0.025
471.88,0.037
470.94,0.050
470.0,0.058
469.06,0.055
468.12,0.040
467.18,0.024
466.24,0.014
465.3,0.008
464.36,0.005
463.42,0.004
462.48,0.003
461.54,0.003
460.6,0.003
459.66,0.002
458.72,0.002
457.78,0.002
456.84,0.002
455.9,0.002
454.96,0.002
454.02,0.003
453.08,0.003
452.14,0.005
451.2,0.014
450.26,0.033
449.32,0.062
448.38,0.097
447.44,0.129
446.5,0.151
445.56,0.150
444.62,0.134
443.68,0.106
442.74,0.068
441.8,0.044
440.86,0.033
439.92,0.025
438.98,0.021
438.04,0.019
437.1,0.016
436.16,0.012
435.22,0.009
434.28,0.007
433.34,0.005
432.4,0.004
431.46,0.003
430.52,0.003
429.58,0.003
428.64,0.002
427.7,0.002
426.76,0.002
425.82,0.001
424.88,0.001
423.94,0.002
423.0,0.002
422.06,0.002
421.12,0.002
420.18,0.002
419.24,0.002
418.3,0.002
417.36,0.002
416.42,0.002
415.48,0.002
414.54,0.003
413.6,0.004
412.66,0.004
411.72,0.004
410.78,0.003
409.84,0.003
408.9,0.002
407.96,0.002
407.02,0.003
406.08,0.007
405.14,0.014
404.2,0.021
403.26,0.027
402.32,0.028
401.38,0.023
400.44,0.018
399.5,0.014
398.56,0.013
397.62,0.017
396.68,0.020
395.74,0.024
394.8,0.035
393.86,0.059
392.92,0.103
391.98,0.184
391.04,0.271
390.1,0.332
389.16,0.339
388.22,0.283
387.28,0.205
386.34,0.135
385.4,0.088
384.46,0.059
383.52,0.038
382.58,0.026
381.64,0.019
380.7,0.014
