wavelength,amplitude
999.22,0.049
998.28,0.050
997.34,0.050
996.4,0.050
995.46,0.051
994.52,0.051
993.58,0.051
992.64,0.050
991.7,0.050
990.76,0.050
989.82,0.051
988.88,0.051
987.94,0.052
987.0,0.053
986.06,0.053
985.12,0.053
984.18,0.053
983.24,0.053
982.3,0.053
981.36,0.053
980.42,0.053
979.48,0.053
978.54,0.053
977.6,0.054
976.66,0.054
975.72,0.054
974.78,0.053
973.84,0.053
972.9,0.054
971.96,0.055
971.02,0.055
970.08,0.055
969.14,0.056
968.2,0.056
967.26,0.056
966.32,0.055
965.38,0.055
964.44,0.055
963.5,0.056
962.56,0.055
961.62,0.055
960.68,0.055
959.74,0.055
958.8,0.055
957.86,0.055
956.92,0.056
955.98,0.056
955.04,0.057
954.1,0.056
953.16,0.056
952.22,0.057
951.28,0.057
950.34,0.057
949.4,0.056
948.46,0.056
947.52,0.056
946.58,0.056
945.64,0.056
944.7,0.057
943.76,0.057
942.82,0.057
941.88,0.057
940.94,0.057
940.0,0.058
939.06,0.057
938.12,0.057
937.18,0.057
936.24,0.057
935.3,0.057
934.36,0.057
933.42,0.058
932.48,0.057
931.54,0.057
930.6,0.058
929.66,0.057
928.72,0.057
927.78,0.057
926.84,0.058
925.9,0.057
924.96,0.057
924.02,0.057
923.08,0.057
922.14,0.057
921.2,0.057
920.26,0.057
919.32,0.056
918.38,0.057
917.44,0.056
916.5,0.056
915.56,0.056
914.62,0.056
913.68,0.057
912.74,0.057
911.8,0.057
910.86,0.057
909.92,0.057
908.98,0.056
908.04,0.057
907.1,0.056
906.16,0.056
905.22,0.056
904.28,0.056
903.34,0.056
902.4,0.056
901.46,0.056
900.52,0.056
899.58,0.056
898.64,0.057
897.7,0.057
896.76,0.057
895.82,0.057
894.88,0.057
893.94,0.057
893.0,0.057
892.06,0.059
891.12,0.059
890.18,0.058
889.24,0.058
888.3,0.058
887.36,0.058
886.42,0.059
885.48,0.059
884.54,0.059
883.6,0.059
882.66,0.059
881.72,0.059
880.78,0.059
879.84,0.058
878.9,0.058
877.96,0.058
877.02,0.059
876.08,0.059
875.14,0.059
874.2,0.059
873.26,0.059
872.32,0.059
871.38,0.059
870.44,0.059
869.5,0.059
868.56,0.060
867.62,0.060
866.68,0.060
865.74,0.060
864.8,0.060
863.86,0.061
862.92,0.062
861.98,0.062
861.04,0.061
860.1,0.061
859.16,0.062
858.22,0.061
857.28,0.061
856.34,0.062
855.4,0.062
854.46,0.062
853.52,0.062
852.58,0.062
851.64,0.062
850.7,0.063
849.76,0.063
848.82,0.063
847.88,0.063
846.94,0.063
846.0,0.063
845.06,0.063
844.12,0.063
843.18,0.063
842.24,0.063
841.3,0.063
840.36,0.063
839.42,0.064
838.48,0.064
837.54,0.064
836.6,0.064
835.66,0.065
834.72,0.065
833.78,0.066
832.84,0.067
831.9,0.067
830.96,0.067
830.02,0.067
829.08,0.067
828.14,0.068
827.2,0.069
826.26,0.069
825.32,0.070
824.38,0.069
823.44,0.070
822.5,0.070
821.56,0.070
820.62,0.071
819.68,0.071
818.74,0.070
817.8,0.069
816.86,0.069
815.92,0.069
814.98,0.069
814.04,0.068
813.1,0.068
812.16,0.068
811.22,0.068
810.28,0.068
809.34,0.068
808.4,0.068
807.46,0.068
806.52,0.068
805.58,0.068
804.64,0.068
803.7,0.068
802.76,0.069
801.82,0.069
800.88,0.070
799.94,0.070
799.0,0.070
798.06,0.071
797.12,0.073
796.18,0.073
795.24,0.075
794.3,0.075
793.36,0.075
792.42,0.076
791.48,0.078
790.54,0.079
789.6,0.079
788.66,0.081
787.72,0.083
786.78,0.083
785.84,0.084
784.9,0.085
783.96,0.085
783.02,0.087
782.08,0.088
781.14,0.089
780.2,0.091
779.26,0.093
778.32,0.094
777.38,0.095
776.44,0.095
775.5,0.095
774.56,0.096
773.62,0.097
772.68,0.098
771.74,0.098
770.8,0.099
769.86,0.100
768.92,0.100
767.98,0.101
767.04,0.102
766.1,0.103
765.16,0.103
764.22,0.105
763.28,0.106
762.34,0.107
761.4,0.112
760.46,0.113
759.52,0.116
758.58,0.117
757.64,0.121
756.7,0.127
755.76,0.133
754.82,0.141
753.88,0.148
752.94,0.154
752.0,0.167
751.06,0.174
750.12,0.182
749.18,0.193
748.24,0.198
747.3,0.205
746.36,0.206
745.42,0.207
744.48,0.208
743.54,0.206
742.6,0.201
741.66,0.193
740.72,0.186
739.78,0.178
738.84,0.168
737.9,0.161
736.96,0.151
736.02,0.145
735.08,0.138
734.14,0.129
733.2,0.124
732.26,0.121
731.32,0.118
730.38,0.116
729.44,0.115
728.5,0.114
727.56,0.112
726.62,0.111
725.68,0.109
724.74,0.107
723.8,0.106
722.86,0.105
721.92,0.103
720.98,0.100
720.04,0.097
719.1,0.094
718.16,0.093
717.22,0.090
716.28,0.085
715.34,0.083
714.4,0.081
713.46,0.080
712.52,0.078
711.58,0.076
710.64,0.072
709.7,0.071
708.76,0.071
707.82,0.069
706.88,0.069
705.94,0.068
705.0,0.068
704.06,0.068
703.12,0.069
702.18,0.069
701.24,0.070
700.3,0.069
699.36,0.070
698.42,0.069
697.48,0.070
696.54,0.070
695.6,0.070
694.66,0.070
693.72,0.072
692.78,0.074
691.84,0.074
690.9,0.076
689.96,0.079
689.02,0.083
688.08,0.087
687.14,0.088
686.2,0.094
685.26,0.099
684.32,0.103
683.38,0.109
682.44,0.113
681.5,0.118
680.56,0.122
679.62,0.129
678.68,0.130
677.74,0.128
676.8,0.126
675.86,0.122
674.92,0.116
673.98,0.113
673.04,0.107
672.1,0.101
671.16,0.093
670.22,0.090
669.28,0.089
668.34,0.090
667.4,0.094
666.46,0.102
665.52,0.114
664.58,0.125
663.64,0.141
662.7,0.157
661.76,0.171
660.82,0.191
659.88,0.209
658.94,0.227
658.0,0.250
657.06,0.262
656.12,0.274
655.18,0.287
654.24,0.296
653.3,0.305
652.36,0.312
651.42,0.316
650.48,0.323
649.54,0.329
648.6,0.345
647.66,0.366
646.72,0.398
645.78,0.439
644.84,0.493
643.9,0.560
642.96,0.624
642.02,0.682
641.08,0.741
640.14,0.802
639.2,0.867
638.26,0.921
637.32,0.957
636.38,0.973
635.44,0.966
634.5,0.942
633.56,0.902
632.62,0.855
631.68,0.802
630.74,0.745
629.8,0.682
628.86,0.617
627.92,0.552
626.98,0.495
626.04,0.469
625.1,0.459
624.16,0.455
623.22,0.453
622.28,0.446
621.34,0.440
620.4,0.442
619.46,0.451
618.52,0.461
617.58,0.476
616.64,0.491
615.7,0.500
614.76,0.511
613.82,0.520
612.88,0.535
611.94,0.543
611.0,0.548
610.06,0.554
609.12,0.557
608.18,0.553
607.24,0.549
606.3,0.543
605.36,0.533
604.42,0.516
603.48,0.493
602.54,0.467
601.6,0.438
600.66,0.409
599.72,0.376
598.78,0.339
597.84,0.301
596.9,0.261
595.96,0.222
595.02,0.184
594.08,0.149
593.14,0.122
592.2,0.100
591.26,0.087
590.32,0.082
589.38,0.080
588.44,0.080
587.5,0.079
586.56,0.079
585.62,0.085
584.68,0.092
583.74,0.102
582.8,0.118
581.86,0.143
580.92,0.171
579.98,0.205
579.04,0.253
578.1,0.305
577.16,0.373
576.22,0.448
575.28,0.531
574.34,0.614
573.4,0.693
572.46,0.768
571.52,0.846
570.58,0.907
569.64,0.949
568.7,0.981
567.76,0.997
566.82,1.000
565.88,0.991
564.94,0.977
564.0,0.958
563.06,0.924
562.12,0.876
561.18,0.820
560.24,0.751
559.3,0.678
558.36,0.601
557.42,0.525
556.48,0.448
555.54,0.377
554.6,0.315
553.66,0.265
552.72,0.221
551.78,0.183
550.84,0.149
549.9,0.123
548.96,0.098
548.02,0.082
547.08,0.067
546.14,0.058
545.2,0.052
544.26,0.048
543.32,0.047
542.38,0.045
541.44,0.044
540.5,0.043
539.56,0.043
538.62,0.043
537.68,0.043
536.74,0.044
535.8,0.044
534.86,0.044
533.92,0.045
532.98,0.046
532.04,0.048
531.1,0.050
530.16,0.052
529.22,0.055
528.28,0.060
527.34,0.064
526.4,0.072
525.46,0.077
524.52,0.085
523.58,0.097
522.64,0.108
521.7,0.118
520.76,0.136
519.82,0.149
518.88,0.167
517.94,0.185
517.0,0.202
516.06,0.222
515.12,0.241
514.18,0.258
513.24,0.274
512.3,0.283
511.36,0.289
510.42,0.291
509.48,0.287
508.54,0.278
507.6,0.265
506.66,0.247
505.72,0.223
504.78,0.196
503.84,0.169
502.9,0.137
501.96,0.108
501.02,0.085
500.08,0.068
499.14,0.058
498.2,0.051
497.26,0.043
496.32,0.040
495.38,0.036
494.44,0.036
493.5,0.035
492.56,0.033
491.62,0.032
490.68,0.031
489.74,0.031
488.8,0.031
487.86,0.030
486.92,0.030
485.98,0.030
485.04,0.029
484.1,0.029
483.16,0.029
482.22,0.029
481.28,0.029
480.34,0.029
479.4,0.029
478.46,0.029
477.52,0.029
476.58,0.029
475.64,0.029
474.7,0.029
473.76,0.029
472.82,0.028
471.88,0.028
470.94,0.029
470.0,0.029
469.06,0.029
468.12,0.028
467.18,0.028
466.24,0.030
465.3,0.038
464.36,0.051
463.42,0.061
462.48,0.073
461.54,0.085
460.6,0.092
459.66,0.096
458.72,0.099
457.78,0.100
456.84,0.101
455.9,0.098
454.96,0.090
454.02,0.079
453.08,0.064
452.14,0.048
451.2,0.037
450.26,0.031
449.32,0.029
448.38,0.028
447.44,0.027
446.5,0.027
445.56,0.027
444.62,0.028
443.68,0.027
442.74,0.027
441.8,0.028
440.86,0.028
439.92,0.027
438.98,0.026
438.04,0.026
437.1,0.026
436.16,0.026
435.22,0.026
434.28,0.026
433.34,0.025
432.4,0.026
431.46,0.025
430.52,0.025
429.58,0.025
428.64,0.025
427.7,0.025
426.76,0.025
425.82,0.024
424.88,0.025
423.94,0.024
423.0,0.024
422.06,0.025
421.12,0.025
420.18,0.024
419.24,0.024
418.3,0.024
417.36,0.024
416.42,0.024
415.48,0.024
414.54,0.024
413.6,0.024
412.66,0.024
411.72,0.024
410.78,0.024
409.84,0.023
408.9,0.023
407.96,0.023
407.02,0.023
406.08,0.023
405.14,0.023
404.2,0.022
403.26,0.022
402.32,0.022
401.38,0.022
400.44,0.022
399.5,0.022
398.56,0.022
397.62,0.022
396.68,0.022
395.74,0.021
394.8,0.021
393.86,0.021
392.92,0.021
391.98,0.022
391.04,0.022
390.1,0.021
389.16,0.021
388.22,0.021
387.28,0.021
386.34,0.020
385.4,0.020
384.46,0.020
383.52,0.020
382.58,0.020
381.64,0.020
380.7,0.020
